ECG	events
-0.0868225	
-0.0852966	
-0.0846863	
-0.0839233	
-0.0827026	
-0.0820923	
-0.0822449	
-0.08255	
-0.0819397	
-0.0802612	
-0.0799561	
-0.0799561	
-0.0798035	
-0.0796509	
-0.0779724	
-0.0776672	
-0.0773621	
-0.0769043	
-0.0756836	
-0.0746155	
-0.0749207	
-0.0749207	
-0.0743103	
-0.0735474	
-0.0727844	
-0.0724792	
-0.0724792	
-0.0718689	
-0.0706482	
-0.0698853	
-0.0700378	
-0.0695801	
-0.0680542	
-0.0674438	
-0.067749	
-0.0671387	
-0.0654602	
-0.0648499	
-0.0631714	
-0.0630188	
-0.0621033	
-0.0608826	
-0.0595093	
-0.058136	
-0.0575256	
-0.0558472	
-0.0556946	
-0.0547791	
-0.0535583	
-0.0527954	
-0.0524902	label 1
-0.0512695	
-0.0506592	
-0.0505066	
-0.0497437	
-0.0486755	
-0.0479126	
-0.0479126	
-0.0476074	
-0.0463867	
-0.0456238	
-0.045166	
-0.043335	
-0.0434875	
-0.042572	
-0.0410461	
-0.0402832	
-0.0386047	
-0.0376892	
-0.0361633	
-0.0354004	
-0.0340271	
-0.0326538	
-0.0312805	
-0.0309753	
-0.0300598	
-0.0288391	
-0.0282288	
-0.0267029	
-0.0256348	
-0.0241089	
-0.0234985	
-0.0234985	
-0.0230408	
-0.0218201	
-0.0212097	
-0.020752	
-0.0209045	
-0.0202942	
-0.0193787	
-0.0187683	
-0.0186157	
-0.0178528	
-0.0166321	
-0.015564	
-0.0141907	
-0.0140381	
-0.0131226	
-0.0115967	
-0.0106812	
-0.00900269	
-0.00839233	
-0.00686646	
-0.00595093	
-0.00442505	
-0.00366211	
-0.00335693	
-0.00198364	
-0.00137329	
-0.00152588	
-0.00167847	
-0.00152588	
-0.00106812	
0.000152588	
0.000915527	
0.000762939	
0.000762939	
0.0012207	
0.00244141	
0.0038147	
0.00549316	
0.00610352	
0.00793457	
0.0088501	
0.0105286	
0.0126648	
0.0134277	
0.0157166	
0.0175476	
0.0184631	
0.0198364	
0.0204468	
0.022583	
0.0231934	
0.0247192	
0.0259399	
0.0271606	
0.0279236	
0.0285339	
0.0296021	
0.0308228	
0.0320435	
0.0323486	
0.0337219	
0.03479	
0.0358582	
0.0372314	
0.0392151	
0.039978	
0.0424194	
0.0447083	
0.0468445	
0.0485229	
0.0500488	
0.0518799	
0.0537109	
0.0549316	
0.0566101	
0.0584412	
0.0598145	
0.0613403	
0.0621033	
0.0640869	
0.065918	
0.0671387	
0.0686646	
0.0697327	
0.0708008	
0.0723267	
0.0735474	
0.0744629	
0.0758362	
0.0767517	
0.0788879	
0.0805664	
0.0816345	
0.0837708	
0.0857544	
0.0866699	
0.0889587	
0.0904846	
0.0917053	
0.0935364	
0.09552	
0.0965881	
0.0978088	
0.0987244	
0.100098	
0.101166	
0.102692	
0.103607	
0.105591	
0.106049	
0.108032	
0.110016	
0.111237	
0.112457	
0.113525	
0.115509	
0.117493	
0.118256	
0.120239	
0.12207	
0.123291	
0.124969	
0.125885	
0.127411	
0.127869	
0.128174	
0.129852	
0.130157	
0.130005	
0.13092	
0.131989	
0.132904	
0.132751	
0.133057	
0.132599	
0.133667	
0.134583	
0.134888	
0.135956	
0.136719	
0.137634	
0.138245	
0.139465	
0.139771	
0.140381	
0.142365	
0.142975	
0.144348	
0.145264	
0.145111	
0.145569	
0.147247	
0.147858	
0.147552	
0.147858	
0.14801	
0.149536	
0.149841	
0.150146	
0.149841	
0.149689	
0.149994	
0.149536	
0.148163	
0.1474	
0.147552	
0.147705	
0.1474	
0.1474	
0.146942	
0.145569	
0.145111	
0.144958	
0.144501	
0.14328	
0.142059	
0.140686	
0.139618	
0.138092	
0.137329	
0.135498	
0.134735	
0.132751	
0.130615	
0.1297	
0.128021	
0.12558	
0.123596	
0.122223	
0.120239	
0.118256	
0.115662	
0.113068	
0.110779	
0.108337	
0.105591	
0.102844	
0.0991821	
0.0959778	
0.0917053	
0.0881958	
0.0845337	
0.0813293	
0.0784302	
0.0746155	
0.0708008	
0.0675964	
0.0643921	
0.0598145	
0.0570679	
0.0538635	
0.050354	
0.0463867	
0.042572	
0.0396729	
0.0358582	
0.0320435	
0.0282288	
0.0248718	
0.0210571	
0.0177002	
0.0141907	
0.0100708	
0.00610352	
0.00335693	
-0.000762939	
-0.0038147	
-0.00686646	
-0.0105286	
-0.0138855	
-0.018158	
-0.0218201	
-0.025177	
-0.0288391	
-0.0325012	
-0.0360107	
-0.0401306	
-0.0427246	
-0.045929	
-0.0498962	
-0.0531006	
-0.0575256	
-0.0602722	
-0.063324	
-0.0669861	
-0.0698853	
-0.072937	
-0.0769043	
-0.0794983	
-0.08255	
-0.0865173	
-0.0894165	
-0.0927734	
-0.096283	
-0.0997925	
-0.10376	
-0.106964	
-0.109253	
-0.11261	
-0.116119	
-0.118866	
-0.121307	
-0.123596	
-0.12619	
-0.128632	
-0.131073	
-0.133362	
-0.136261	
-0.138092	
-0.139465	
-0.141602	
-0.143738	
-0.145264	
-0.146484	
-0.14801	
-0.150452	
-0.15152	
-0.152893	
-0.154114	
-0.155334	
-0.156097	
-0.157623	
-0.158997	
-0.160065	
-0.161285	
-0.162659	
-0.163116	
-0.163269	
-0.164795	
-0.165405	
-0.165863	
-0.167389	
-0.167694	
-0.167694	
-0.167999	
-0.167694	
-0.168304	
-0.170135	
-0.170593	
-0.170135	
-0.168762	
-0.167694	
-0.167999	
-0.168152	
-0.167847	
-0.167999	
-0.167847	
-0.167847	
-0.167999	
-0.167694	
-0.168152	
-0.167847	
-0.167847	
-0.167847	
-0.16861	
-0.169678	
-0.170593	
-0.170135	
-0.170593	
-0.172119	
-0.172577	
-0.172882	
-0.173035	
-0.17334	
-0.174713	
-0.175476	
-0.175171	
-0.175629	
-0.175476	
-0.175323	
-0.175476	
-0.175323	
-0.175629	
-0.175018	
-0.173798	
-0.173035	
-0.172882	
-0.172424	
-0.170746	
-0.170593	
-0.170593	
-0.16983	
-0.168915	
-0.168152	
-0.167542	
-0.166016	
-0.16571	
-0.164795	
-0.164032	
-0.162811	
-0.161285	
-0.160675	
-0.160828	
-0.160217	
-0.158691	
-0.158539	
-0.157623	
-0.156097	
-0.155792	
-0.155182	
-0.154114	
-0.153503	
-0.152893	
-0.151367	
-0.151215	
-0.150757	
-0.150299	
-0.149384	
-0.148468	
-0.148163	
-0.146942	
-0.146332	
-0.145416	
-0.144196	
-0.142975	
-0.141449	
-0.140686	
-0.139313	
-0.138245	
-0.136261	
-0.13443	
-0.133514	
-0.131836	
-0.130768	
-0.129242	
-0.129242	
-0.128174	
-0.126953	
-0.12619	
-0.124207	
-0.124054	
-0.124207	
-0.123444	
-0.12207	
-0.121765	
-0.121307	
-0.119629	
-0.119019	
-0.119171	
-0.118561	
-0.11673	
-0.11673	
-0.11673	
-0.116577	
-0.116119	
-0.114594	
-0.113983	
-0.114136	
-0.114288	
-0.114288	
-0.114288	
-0.113983	
-0.114288	
-0.113373	
-0.11261	
-0.111847	
-0.111084	
-0.110016	
-0.109253	
-0.108795	
-0.10788	
-0.106354	
-0.10498	
-0.104218	
-0.102386	
-0.101471	
-0.0997925	
-0.0990295	
-0.0973511	
-0.0965881	
-0.0946045	
-0.0939941	
-0.0924683	
-0.0918579	
-0.0914001	
-0.0901794	
-0.0897217	
-0.0900269	
-0.0898743	
-0.0891113	
-0.0874329	
-0.0868225	
-0.0874329	
-0.0872803	
-0.0866699	
-0.085144	
-0.0849915	
-0.0842285	
-0.0827026	
-0.0823975	
-0.0822449	
-0.0816345	
-0.0802612	
-0.0802612	
-0.0791931	
-0.0776672	
-0.0776672	
-0.0772095	
-0.0765991	
-0.075531	
-0.0752258	
-0.0749207	
-0.0750732	
-0.0746155	
-0.0730896	
-0.0726318	
-0.0727844	
-0.0724792	
-0.0724792	
-0.0723267	
-0.0718689	
-0.070343	
-0.070343	
-0.0700378	
-0.0695801	
-0.0683594	
-0.0674438	
-0.0672913	
-0.0657654	
-0.0653076	
-0.0654602	
-0.0646973	
-0.0637817	
-0.0630188	
-0.062561	
-0.0617981	
-0.06073	
-0.0602722	
-0.0601196	
-0.0595093	
-0.0584412	
-0.0579834	
-0.0576782	
-0.0575256	
-0.0556946	
-0.0556946	
-0.055542	
-0.0552368	
-0.0537109	
-0.052948	
-0.052948	
-0.0532532	
-0.0534058	
-0.0524902	
-0.0524902	
-0.0511169	
-0.0505066	
-0.0508118	
-0.050354	
-0.0498962	
-0.0489807	
-0.0480652	
-0.0480652	
-0.0479126	
-0.0483704	
-0.0480652	
-0.04776	
-0.0473022	
-0.0457764	
-0.0457764	
-0.0457764	
-0.0447083	
-0.0437927	
-0.0431824	
-0.0430298	
-0.0427246	
-0.0424194	
-0.0413513	
-0.0408936	
-0.040741	
-0.0405884	
-0.040741	
-0.040741	
-0.0413513	
-0.0427246	
-0.043335	
-0.0434875	
-0.0434875	
-0.0431824	
-0.043335	
-0.042572	
-0.0431824	
-0.0427246	
-0.0431824	
-0.0424194	
-0.0415039	
-0.040741	
-0.0401306	
-0.0386047	
-0.0384521	
-0.0378418	
-0.0364685	
-0.035553	
-0.0354004	
-0.0335693	
-0.0334167	
-0.0326538	
-0.0315857	
-0.0309753	
-0.0308228	
-0.0306702	
-0.0306702	
-0.0309753	
-0.0308228	
-0.0308228	
-0.0305176	
-0.0306702	
-0.0308228	
-0.0308228	
-0.0309753	
-0.030365	
-0.0309753	
-0.0311279	
-0.0309753	
-0.0311279	
-0.0306702	
-0.0309753	
-0.0309753	
-0.0311279	
-0.0308228	
-0.0311279	
-0.0306702	
-0.0306702	
-0.0311279	
-0.0308228	
-0.0311279	
-0.0309753	
-0.0308228	
-0.0302124	
-0.0292969	
-0.0286865	
-0.0285339	
-0.0282288	
-0.0283813	
-0.0283813	
-0.0285339	
-0.0300598	
-0.0305176	
-0.0306702	
-0.0309753	
-0.0311279	
-0.0325012	
-0.0334167	
-0.0335693	
-0.0334167	
-0.0338745	
-0.0350952	
-0.0358582	
-0.0357056	
-0.0360107	
-0.035553	
-0.0358582	
-0.0366211	
-0.0376892	
-0.038147	
-0.0378418	
-0.0378418	
-0.0366211	
-0.0360107	
-0.035553	
-0.0357056	
-0.0358582	
-0.0352478	
-0.0338745	
-0.0332642	
-0.0328064	
-0.0315857	
-0.0311279	
-0.0305176	
-0.0288391	
-0.027771	
-0.0267029	
-0.0260925	
-0.0253296	
-0.0241089	
-0.0228882	
-0.0216675	
-0.0212097	
-0.0212097	
-0.0210571	
-0.0212097	
-0.0209045	
-0.0210571	
-0.0212097	
-0.0210571	
-0.0210571	
-0.0212097	
-0.0219727	
-0.0230408	
-0.0233459	
-0.0239563	
-0.0256348	
-0.0260925	
-0.0263977	
-0.0279236	
-0.0282288	
-0.0282288	
-0.0286865	
-0.0288391	
-0.030365	
-0.030365	
-0.0291443	
-0.0288391	
-0.0286865	
-0.0282288	
-0.0285339	
-0.0285339	
-0.0282288	
-0.0285339	
-0.0285339	
-0.0280762	
-0.0263977	
-0.0259399	
-0.0259399	
-0.0257874	
-0.0257874	
-0.0259399	
-0.0259399	
-0.0259399	
-0.0256348	
-0.0256348	
-0.0260925	
-0.0259399	
-0.0257874	
-0.0259399	
-0.0262451	
-0.0259399	
-0.0259399	
-0.0267029	
-0.0280762	
-0.0282288	
-0.0285339	
-0.0283813	
-0.0280762	
-0.0283813	
-0.0282288	
-0.0285339	
-0.0286865	
-0.0283813	
-0.0285339	
-0.0280762	
-0.0268555	
-0.0263977	
-0.0257874	
-0.0260925	
-0.0263977	
-0.0256348	
-0.0239563	
-0.0231934	
-0.0233459	
-0.0231934	
-0.0236511	
-0.0233459	
-0.0234985	
-0.0236511	
-0.0233459	
-0.0233459	
-0.0233459	
-0.0234985	
-0.0234985	
-0.0242615	
-0.0256348	
-0.0260925	
-0.0263977	
-0.0262451	
-0.0260925	
-0.0260925	
-0.0262451	
-0.0259399	
-0.0259399	
-0.0260925	
-0.0260925	
-0.0259399	
-0.0259399	
-0.0259399	
-0.0257874	
-0.0256348	
-0.0257874	
-0.0262451	
-0.0259399	
-0.0259399	
-0.0257874	
-0.0242615	
-0.0238037	
-0.0236511	
-0.0236511	
-0.0231934	
-0.0234985	
-0.0233459	
-0.0234985	
-0.0228882	
-0.0216675	
-0.020752	
-0.0212097	
-0.0212097	
-0.020752	
-0.0209045	
-0.0209045	
-0.0189209	
-0.0186157	
-0.0184631	
-0.018158	
-0.0163269	
-0.0161743	
-0.0154114	
-0.0140381	
-0.0134277	
-0.0117493	
-0.010376	
-0.00930786	
-0.0088501	
-0.00869751	
-0.00854492	
-0.00839233	
-0.00732422	
-0.00656128	
-0.00701904	
-0.00839233	
-0.00869751	
-0.00900269	
-0.0088501	
-0.00900269	
-0.00915527	
-0.0108337	
-0.0112915	
-0.0109863	
-0.0114441	
-0.0114441	
-0.0112915	
-0.0111389	
-0.0109863	
-0.0112915	
-0.0112915	
-0.0117493	
-0.0132751	
-0.0138855	
-0.0137329	
-0.0138855	
-0.0138855	
-0.0138855	
-0.0135803	
-0.0138855	
-0.0134277	
-0.0141907	
-0.0143433	
-0.015564	
-0.0158691	
-0.0161743	
-0.0161743	
-0.0163269	
-0.0163269	
-0.0166321	
-0.0160217	
-0.0160217	
-0.0157166	
-0.0144958	
-0.0140381	
-0.0137329	
-0.0137329	
-0.0138855	
-0.0134277	
-0.0135803	
-0.0135803	
-0.0138855	
-0.0137329	
-0.0137329	
-0.0137329	
-0.0137329	
-0.0134277	
-0.0131226	
-0.0119019	
-0.0112915	
-0.0109863	
-0.0114441	
-0.0112915	
-0.0106812	
-0.00946045	
-0.00915527	
-0.00823975	
-0.00671387	
-0.00640869	
-0.00595093	
-0.00427246	
-0.00350952	
-0.00198364	
-0.00167847	
-0.00137329	
-0.00137329	
-0.0012207	
-0.00167847	
-0.0012207	
-0.0012207	
-0.00137329	
-0.00152588	
-0.00198364	
-0.00350952	
-0.00396729	
-0.00427246	
-0.00396729	
-0.00396729	
-0.0038147	
-0.00366211	
-0.00396729	
-0.00335693	
-0.00198364	
-0.00167847	
-0.000915527	
0.000305176	
0.0012207	
0.00259399	
0.00396729	
0.00518799	
0.00549316	
0.00656128	
0.00747681	
0.00778198	
0.00839233	
0.00839233	
0.00854492	
0.00839233	
0.00793457	
0.00808716	
0.00808716	
0.00778198	
0.00610352	
0.00564575	
0.00595093	
0.00595093	
0.00534058	
0.00396729	
0.00305176	
0.00350952	
0.00289917	
0.00137329	
0.00106812	
0.000915527	
0.000915527	
0.000305176	
-0.000762939	
-0.00137329	
-0.00183105	
-0.0012207	
-0.00152588	
-0.00152588	
-0.00137329	
-0.00137329	
-0.0012207	
-0.00167847	
-0.00167847	
-0.00183105	
-0.00152588	
-0.00152588	
-0.00167847	
-0.00152588	
-0.00137329	
-0.00152588	
-0.00152588	
-0.00167847	
-0.0012207	
-0.00152588	
-0.00152588	
-0.00106812	
0.000305176	
0.000762939	
0.000610352	
0.000610352	
0.000762939	
0.00167847	
0.00244141	
0.00320435	
0.00350952	
0.00366211	
0.00335693	
0.00305176	
0.00335693	
0.00335693	
0.00335693	
0.00335693	
0.00350952	
0.00305176	
0.00335693	
0.00335693	
0.00320435	
0.00366211	
0.00518799	
0.00595093	
0.00610352	
0.00564575	
0.00595093	
0.00549316	
0.00579834	
0.00564575	
0.00610352	
0.00579834	
0.00564575	
0.00610352	
0.00564575	
0.00640869	
0.00747681	
0.00823975	
0.00823975	
0.00930786	
0.0100708	
0.0102234	
0.0106812	
0.0109863	
0.0123596	
0.0125122	
0.0126648	
0.01297	
0.0134277	
0.0131226	
0.01297	
0.0131226	
0.0128174	
0.0128174	
0.0111389	
0.0106812	
0.0106812	
0.0108337	
0.010376	
0.0105286	
0.0108337	
0.0108337	
0.0109863	
0.0108337	
0.0106812	
0.0112915	
0.0108337	
0.0109863	
0.010376	
0.0105286	
0.0105286	
0.0100708	
0.0088501	
0.00808716	
0.00778198	
0.00793457	
0.00823975	
0.00808716	
0.00839233	
0.00762939	
0.00640869	
0.00579834	
0.00549316	
0.00579834	
0.00579834	
0.00640869	
0.00747681	
0.00839233	
0.00793457	
0.00823975	
0.00854492	
0.00839233	
0.00808716	
0.0088501	
0.0100708	
0.0105286	
0.0106812	
0.0102234	
0.0114441	
0.0123596	
0.0128174	
0.01297	
0.01297	
0.0128174	
0.0137329	
0.0152588	
0.015564	
0.0157166	
0.0154114	
0.0160217	
0.0172424	
0.0178528	
0.0180054	
0.0175476	
0.0187683	
0.0195313	
0.0202942	
0.020752	
0.0222778	
0.0230408	
0.0234985	
0.0245667	
0.0250244	
0.0253296	
0.0254822	
0.0254822	
0.0250244	
0.0257874	
0.0271606	
0.0276184	
0.0273132	
0.0274658	
0.0279236	
0.0274658	
0.0271606	
0.0259399	
0.025177	
0.025177	
0.0253296	
0.0259399	
0.0270081	
0.0274658	
0.0283813	
0.0294495	
0.0311279	
0.0325012	
0.0331116	
0.0352478	
0.0370789	
0.0382996	
0.0398254	
0.0419617	
0.0442505	
0.0466919	
0.0486755	
0.0502014	
0.0520325	
0.0541687	
0.0566101	
0.0593567	
0.0596619	
0.0619507	
0.0636292	
0.0640869	
0.0643921	
0.065918	
0.0665283	
0.0666809	
0.0665283	
0.0666809	
0.0662231	
0.0660706	
0.0646973	
0.0639343	
0.0621033	
0.0608826	
0.0592041	
0.0569153	
0.0547791	
0.0521851	
0.0494385	
0.0466919	
0.0445557	
0.0421143	
0.0401306	
0.037384	
0.0349426	
0.0328064	
0.0306702	
0.0279236	
0.0259399	
0.0248718	
0.0230408	
0.0209045	
0.0204468	
0.020752	
0.0204468	
0.0198364	
0.0189209	
0.0198364	
0.0204468	
0.0205994	
0.0209045	
0.0224304	
0.0228882	
0.0234985	
0.025177	
0.0271606	
0.0282288	
0.0300598	
0.0318909	
0.0332642	
0.0346375	
0.0376892	
0.0393677	
0.039978	
0.0419617	
0.0440979	
0.0448608	
0.0465393	
0.0473022	
0.0489807	
0.0495911	
0.0512695	
0.0518799	
0.0524902	
0.0538635	
0.0540161	
0.0541687	
0.0543213	
0.0543213	
0.0543213	
0.0543213	
0.0544739	
0.0546265	
0.0547791	
0.0563049	
0.0567627	
0.0566101	
0.0569153	
0.0570679	
0.0582886	
0.0592041	
0.0592041	
0.0592041	
0.0596619	
0.0614929	
0.0616455	
0.0619507	
0.0617981	
0.0619507	
0.0619507	
0.0619507	
0.0616455	
0.0617981	
0.0608826	
0.0601196	
0.0590515	
0.0575256	
0.0566101	
0.0546265	
0.0520325	
0.0492859	
0.0471497	
0.0447083	
0.0421143	
0.0398254	
0.038147	
0.0372314	
0.0350952	
0.032959	
0.0308228	
0.0297546	
0.0276184	
0.0254822	
0.0231934	
0.020752	
0.0201416	
0.018158	
0.0157166	
0.0135803	
0.0125122	
0.0105286	
0.00823975	
0.00595093	
0.00411987	
0.00305176	
0.00106812	
-0.000762939	
-0.00213623	
-0.00335693	
-0.00411987	
-0.0062561	
-0.00656128	
-0.00717163	
-0.00854492	
-0.00900269	
-0.00900269	
-0.00900269	
-0.00854492	
-0.00839233	
-0.00869751	
-0.0088501	
-0.00915527	
-0.00869751	
-0.00869751	
-0.0088501	
-0.00869751	
-0.00869751	
-0.00915527	
-0.00854492	
-0.00915527	
-0.00854492	
-0.00915527	
-0.00930786	
-0.0108337	
-0.0112915	
-0.0114441	
-0.0109863	
-0.0109863	
-0.0112915	
-0.0112915	
-0.0111389	
-0.0112915	
-0.0112915	
-0.0112915	
-0.0114441	
-0.0111389	
-0.0117493	
-0.0108337	
-0.0111389	
-0.0112915	
-0.0114441	
-0.0114441	
-0.0114441	
-0.0114441	
-0.0114441	
-0.0112915	
-0.0115967	
-0.0114441	
-0.0114441	
-0.0108337	
-0.0112915	
-0.0112915	
-0.0109863	
-0.0109863	
-0.0112915	
-0.0114441	
-0.0112915	
-0.0109863	
-0.0111389	
-0.0115967	
-0.0112915	
-0.0112915	
-0.0114441	
-0.0109863	
-0.0105286	
-0.00961304	
-0.00900269	
-0.00869751	
-0.0088501	
-0.0088501	
-0.00823975	
-0.00686646	
-0.00671387	
-0.0062561	
-0.00595093	
-0.00656128	
-0.00610352	
-0.00640869	
-0.00656128	
-0.00640869	
-0.00640869	
-0.00686646	
-0.00579834	
-0.00457764	
-0.00396729	
-0.00411987	
-0.00366211	
-0.00198364	
-0.00137329	
-0.00137329	
-0.00137329	
-0.000915527	
0.000457764	
0.000762939	
0.000610352	
0.000610352	
0.000610352	
0.000762939	
0.000610352	
0.000915527	
0.000457764	
0.00106812	
0.00259399	
0.00305176	
0.00305176	
0.00366211	
0.00350952	
0.00320435	
0.00366211	
0.00534058	
0.00579834	
0.00610352	
0.00640869	
0.00732422	
0.00854492	
0.00823975	
0.00808716	
0.00823975	
0.00823975	
0.00823975	
0.00839233	
0.00823975	
0.00823975	
0.00808716	
0.00793457	
0.00808716	
0.00793457	
0.00762939	
0.0062561	
0.0050354	
0.00396729	
0.00289917	
0.00137329	
0.000915527	
0.000152588	
-0.0012207	
-0.00106812	
-0.00167847	
-0.000915527	
0.000152588	
0.000762939	
0.00137329	
0.00289917	
0.00350952	
0.00564575	
0.00762939	
0.00915527	
0.0108337	
0.0123596	
0.0134277	
0.0152588	
0.0178528	
0.0183105	
0.0202942	
0.022583	
0.0250244	
0.0276184	
0.0300598	
0.032959	
0.037384	
0.0418091	
0.0474548	
0.0544739	
0.0621033	
0.0712585	
0.0817871	
0.09552	
0.110779	
0.128021	
0.146637	
0.169678	
0.195618	
0.223694	
0.254059	
0.287018	
0.323334	
0.361938	
0.403748	
0.447998	
0.493622	
0.542908	
0.593719	
0.645142	
0.697327	
0.750427	
0.804443	
0.858307	
0.912323	
0.965881	
1.01959	
1.07147	
1.12244	
1.17157	
1.21887	
1.2645	
1.30554	
1.34369	
1.37878	
1.40869	
1.43387	
1.45569	
1.47324	
1.4856	
1.49307	
1.49597	
1.49536	
1.49155	
1.48392	
1.47186	
1.45752	
1.43951	
1.41846	
1.39374	
1.36459	
1.33133	
1.29532	
1.25549	
1.2117	
1.16516	
1.11603	
1.06445	
1.00952	
0.952454	
0.89386	
0.835419	
0.775146	
0.712891	
0.65155	
0.589752	
0.527496	
0.465546	
0.404205	
0.342712	
0.281982	
0.222931	
0.164337	
0.108185	
0.0540161	
0.00320435	
-0.045166	
-0.0904846	
-0.133667	
-0.174255	
-0.212402	
-0.246735	
-0.279083	
-0.308685	
-0.335541	
-0.360107	
-0.38269	
-0.402069	
-0.420074	
-0.435944	
-0.449524	
-0.460815	
-0.469055	
-0.475922	
-0.481415	
-0.48584	
-0.488892	
-0.488129	
-0.486755	
-0.484161	
-0.48172	
-0.478668	
-0.473938	
-0.467987	
-0.461578	
-0.455627	
-0.449829	
-0.442657	
-0.435486	
-0.427856	
-0.422668	
-0.415649	
-0.40863	
-0.401001	
-0.393524	
-0.386658	
-0.379028	
-0.372162	
-0.36499	
-0.359039	
-0.351868	
-0.344696	
-0.337677	
-0.331879	
-0.325317	
-0.319672	
-0.31311	
-0.307617	
-0.303192	
-0.298004	
-0.292969	
-0.288544	
-0.283051	
-0.278168	
-0.274048	
-0.270691	
-0.266724	
-0.262909	
-0.259247	
-0.256042	
-0.253906	
-0.251465	
-0.248871	
-0.246735	
-0.243988	
-0.241547	
-0.239258	
-0.238495	
-0.236511	
-0.234222	
-0.232544	
-0.231171	
-0.22934	
-0.227661	
-0.226288	
-0.22522	
-0.223999	
-0.222626	
-0.221558	
-0.220337	
-0.218964	
-0.217743	
-0.216827	
-0.216064	
-0.215302	
-0.214539	
-0.214233	
-0.21286	
-0.211945	
-0.210114	
-0.209961	
-0.209351	
-0.208282	
-0.206909	
-0.205688	
-0.20462	
-0.202179	
-0.200653	
-0.199432	
-0.197449	
-0.195007	
-0.192719	
-0.192108	
-0.189972	
-0.187988	
-0.187531	
-0.185089	
-0.183105	
-0.18219	
-0.180817	
-0.180359	
-0.179596	
-0.178528	
-0.177765	
-0.177155	
-0.175781	
-0.175476	
-0.175781	
-0.174866	
-0.17334	
-0.173187	
-0.173187	
-0.172424	
-0.170746	
-0.170441	
-0.16983	
-0.16861	
-0.167694	
-0.166016	
-0.16571	
-0.165253	
-0.163879	
-0.162506	
-0.161438	
-0.160065	
-0.158691	
-0.157776	
-0.156403	
-0.155487	
-0.153809	
-0.153351	
-0.15152	
-0.150452	
-0.148926	
-0.14801	
-0.14679	
-0.145569	
-0.144348	
-0.14389	
-0.14328	
-0.141449	
-0.141449	
-0.140381	
-0.139465	
-0.138092	
-0.136566	
-0.136414	
-0.135956	
-0.13443	
-0.133209	
-0.131989	
-0.131531	
-0.131073	
-0.129547	
-0.128632	
-0.128174	
-0.126648	
-0.12619	
-0.126495	
-0.125732	
-0.124512	
-0.124054	
-0.124054	
-0.123749	
-0.123444	
-0.121918	
-0.121765	
-0.121002	
-0.119629	
-0.118256	
-0.117035	
-0.116272	
-0.114746	
-0.114136	
-0.113525	
-0.112152	
-0.111694	
-0.109406	
-0.109406	
-0.1091	
-0.108795	
-0.107727	
-0.106812	
-0.106506	
-0.106506	
-0.106964	
-0.106659	
-0.106812	
-0.106812	
-0.106964	
-0.106964	
-0.106964	
-0.106964	
-0.106964	
-0.106354	
-0.105286	
-0.104218	
-0.104218	
-0.10437	
-0.10376	
-0.102539	
-0.101929	
-0.101624	
-0.101166	
-0.100098	
-0.0994873	
-0.0993347	
-0.0993347	
-0.098877	
-0.098114	
-0.0967407	
-0.0967407	
-0.0965881	
-0.0950623	
-0.0946045	
-0.0946045	
-0.0933838	
-0.0926208	
-0.0924683	
-0.0914001	
-0.0898743	
-0.0891113	
-0.087738	
-0.0869751	
-0.0856018	
-0.0845337	
-0.0828552	
-0.0814819	
-0.0802612	
-0.0794983	
-0.0785828	
-0.0772095	
-0.0756836	
-0.0749207	
-0.0732422	
-0.072937	
-0.0718689	
-0.070343	
-0.070343	
-0.0695801	
-0.0694275	
-0.0679016	
-0.067749	
-0.0675964	
-0.0675964	
-0.067749	
-0.0668335	
-0.0660706	
-0.0650024	
-0.0646973	
-0.0634766	
-0.0628662	
-0.062561	
-0.06073	
-0.0598145	
-0.0582886	
-0.0579834	
-0.0570679	
-0.0561523	
-0.0546265	
-0.0532532	
-0.0524902	
-0.0511169	
-0.0498962	
-0.0483704	
-0.0480652	
-0.0476074	
-0.0456238	
-0.0456238	
-0.0453186	
-0.0439453	
-0.0431824	
-0.0428772	
-0.0422668	
-0.0413513	
-0.0405884	
-0.040741	
-0.0404358	
-0.040741	
-0.0404358	
-0.0401306	
-0.0389099	
-0.038147	
-0.0384521	
-0.0379944	
-0.0357056	
-0.0361633	
-0.0354004	
-0.0338745	
-0.0335693	
-0.032959	
-0.0312805	
-0.0308228	
-0.0302124	
-0.0288391	
-0.0285339	
-0.0283813	
-0.027771	
-0.0263977	
-0.0260925	
-0.0262451	
-0.0257874	
-0.0241089	
-0.0241089	
-0.0239563	
-0.0233459	
-0.0231934	
-0.0218201	
-0.0210571	
-0.020752	
-0.0192261	
-0.0183105	
-0.0161743	
-0.0143433	
-0.0131226	
-0.0114441	
-0.00976563	
-0.00839233	
-0.00656128	
-0.00457764	
-0.00350952	
-0.00198364	
-0.000762939	
0.000305176	
0.00167847	
0.00289917	
0.00350952	
0.00350952	
0.00518799	
0.00595093	
0.00640869	
0.00747681	
0.00793457	
0.00900269	
0.0100708	
0.0109863	
0.0125122	
0.01297	
0.0134277	
0.014801	
0.015564	
0.0175476	
0.0196838	
0.0205994	
0.022583	
0.0230408	
0.0250244	
0.0259399	
0.0273132	
0.027771	
0.0283813	
0.0300598	
0.0308228	
0.0323486	
0.0326538	
0.0332642	
0.0349426	
0.0349426	
0.0357056	
0.0367737	
0.0378418	
0.0395203	
0.0398254	
0.0416565	
0.0422668	
0.0437927	
0.0453186	
0.0469971	
0.0488281	
0.0500488	
0.0517273	
0.0537109	
0.0549316	
0.0567627	
0.0588989	
0.0601196	
0.0611877	
0.0624084	
0.0637817	
0.0646973	
0.0660706	
0.0669861	
0.068512	
0.0692749	
0.0694275	
0.0712585	
0.0720215	
0.0733948	
0.0738525	
0.0743103	
0.0756836	
0.0767517	
0.078125	
0.0787354	
0.0790405	
0.080719	
0.0817871	
0.0831604	
0.0839233	
0.0856018	
0.0863647	
0.0880432	
0.0892639	
0.0906372	
0.0912476	
0.0918579	
0.0932312	
0.093689	
0.0958252	
0.0979614	
0.098877	
0.100098	
0.101624	
0.103149	
0.105438	
0.106354	
0.107574	
0.108337	
0.1091	
0.110474	
0.110321	
0.110779	
0.111084	
0.112305	
0.11322	
0.113068	
0.115356	
0.115204	
0.116425	
0.117645	
0.11795	
0.11795	
0.118103	
0.118256	
0.117798	
0.117645	
0.118408	
0.119934	
0.120087	
0.120239	
0.120697	
0.120544	
0.120239	
0.120239	
0.118256	
0.118256	
0.11795	
0.118561	
0.119934	
0.120392	
0.120392	
0.120239	
0.120544	
0.121002	
0.122223	
0.122833	
0.123138	
0.124664	
0.125275	
0.125732	
0.125885	
0.125885	
0.126953	
0.125427	
0.125275	
0.125275	
0.124664	
0.122681	
0.12085	
0.120239	
0.117798	
0.115662	
0.115204	
0.11322	
0.110474	
0.10849	
0.107727	
0.105743	
0.103455	
0.101013	
0.0985718	
0.0959778	
0.0933838	
0.0912476	
0.0888062	
0.0862122	
0.0839233	
0.0811768	
0.0788879	
0.0765991	
0.0735474	
0.0695801	
0.0665283	
0.0643921	
0.0611877	
0.0576782	
0.0544739	
0.0520325	
0.0488281	
0.0454712	
0.0419617	
0.0382996	
0.0352478	
0.0323486	
0.0283813	
0.0253296	
0.0221252	
0.0184631	
0.0157166	
0.0132751	
0.0102234	
0.0062561	
0.00350952	
0.000762939	
-0.00350952	
-0.00610352	
-0.0088501	
-0.0131226	
-0.0158691	
-0.0183105	
-0.0212097	
-0.0238037	
-0.0279236	
-0.0309753	
-0.0341797	
-0.0379944	
-0.0402832	
-0.0431824	
-0.0462341	
-0.0498962	
-0.052948	
-0.0561523	
-0.0598145	
-0.0628662	
-0.0657654	
-0.0694275	
-0.0724792	
-0.0758362	
-0.0791931	
-0.0817871	
-0.0852966	
-0.0891113	
-0.0918579	
-0.0942993	
-0.0967407	
-0.0996399	
-0.104065	
-0.106506	
-0.109253	
-0.111542	
-0.113831	
-0.116577	
-0.119324	
-0.12146	
-0.124207	
-0.12619	
-0.128784	
-0.131226	
-0.133057	
-0.13443	
-0.136261	
-0.138245	
-0.139313	
-0.140839	
-0.141449	
-0.14328	
-0.143433	
-0.143433	
-0.14389	
-0.145569	
-0.146027	
-0.145874	
-0.145874	
-0.146484	
-0.147705	
-0.148468	
-0.148773	
-0.148773	
-0.148926	
-0.150757	
-0.151062	
-0.151062	
-0.150757	
-0.151215	
-0.15274	
-0.153198	
-0.153198	
-0.153198	
-0.153809	
-0.154724	
-0.155945	
-0.157623	
-0.158386	
-0.158997	
-0.160065	
-0.16037	
-0.161133	
-0.162048	
-0.163116	
-0.163422	
-0.164795	
-0.165558	
-0.165558	
-0.16571	
-0.166168	
-0.167694	
-0.167847	
-0.168152	
-0.167236	
-0.166779	
-0.16571	
-0.165405	
-0.164948	
-0.163574	
-0.162811	
-0.162354	
-0.161285	
-0.16098	
-0.159912	
-0.159149	
-0.158234	
-0.157776	
-0.156708	
-0.15625	
-0.155487	
-0.154114	
-0.153503	
-0.15274	
-0.15152	
-0.150909	
-0.151215	
-0.150757	
-0.150909	
-0.151062	
-0.150757	
-0.151215	
-0.151062	
-0.150757	
-0.150604	
-0.150909	
-0.150757	
-0.150909	
-0.150909	
-0.150909	
-0.150757	
-0.151062	
-0.150299	
-0.148773	
-0.148621	
-0.148621	
-0.148315	
-0.148163	
-0.14679	
-0.146179	
-0.146484	
-0.145721	
-0.145569	
-0.144196	
-0.143433	
-0.143433	
-0.143433	
-0.142975	
-0.141602	
-0.140991	
-0.141144	
-0.141144	
-0.140839	
-0.139618	
-0.138855	
-0.13855	
-0.138245	
-0.136719	
-0.136261	
-0.136108	
-0.136566	
-0.135956	
-0.13443	
-0.13382	
-0.133667	
-0.133667	
-0.133209	
-0.131683	
-0.131226	
-0.131683	
-0.131226	
-0.130615	
-0.129395	
-0.128784	
-0.126801	
-0.12619	
-0.124512	
-0.123596	
-0.12207	
-0.121307	
-0.119476	
-0.119019	
-0.118561	
-0.116882	
-0.116119	
-0.114899	
-0.114136	
-0.113678	
-0.111542	
-0.109863	
-0.1091	
-0.107574	
-0.106354	
-0.10498	
-0.103455	
-0.102386	
-0.101166	
-0.100098	
-0.0994873	
-0.0990295	
-0.0971985	
-0.0970459	
-0.096283	
-0.0950623	
-0.093689	
-0.0926208	
-0.0923157	
-0.0914001	
-0.0898743	
-0.0892639	
-0.0892639	
-0.087738	
-0.0871277	
-0.0872803	
-0.0871277	
-0.0869751	
-0.0852966	
-0.0848389	
-0.0848389	
-0.0845337	
-0.0846863	
-0.0843811	
-0.0842285	
-0.0823975	
-0.08255	
-0.0822449	
-0.0820923	
-0.0822449	
-0.0827026	
-0.0823975	
-0.0827026	
-0.0819397	
-0.080719	
-0.0799561	
-0.0793457	
-0.0778198	
-0.0770569	
-0.075531	
-0.0749207	
-0.0724792	
-0.0708008	
-0.0698853	
-0.067749	
-0.0656128	
-0.0646973	
-0.0628662	
-0.0608826	
-0.0601196	
-0.0582886	
-0.0572205	
-0.0558472	
-0.0553894	
-0.0550842	
-0.0534058	
-0.0527954	
-0.0532532	
-0.052948	
-0.0531006	
-0.0532532	
-0.0549316	
-0.0553894	
-0.0552368	
-0.0556946	
-0.055542	
-0.0552368	
-0.0552368	
-0.0556946	
-0.055542	
-0.0556946	
-0.055542	
-0.055542	
-0.0556946	
-0.0556946	
-0.0556946	
-0.0552368	
-0.0552368	
-0.0546265	
-0.0534058	
-0.052948	
-0.0526428	
-0.0527954	
-0.0527954	
-0.0532532	
-0.052948	
-0.0527954	
-0.0512695	
-0.0506592	
-0.0498962	
-0.0482178	
-0.0482178	
-0.0482178	
-0.0474548	
-0.0462341	
-0.0454712	
-0.0448608	
-0.0439453	
-0.0431824	
-0.0431824	
-0.0427246	
-0.0413513	
-0.040741	
-0.0405884	
-0.0408936	
-0.0401306	
-0.0387573	
-0.0382996	
-0.038147	
-0.0384521	
-0.0375366	
-0.0361633	
-0.0360107	
-0.035553	
-0.0352478	
-0.0338745	
-0.0334167	
-0.0332642	
-0.0332642	
-0.0328064	
-0.0314331	
-0.0309753	
-0.0309753	
-0.0308228	
-0.0311279	
-0.0308228	
-0.0311279	
-0.0309753	
-0.0308228	
-0.0311279	
-0.0311279	
-0.030365	
-0.0308228	
-0.0302124	
-0.0288391	
-0.0285339	
-0.0283813	
-0.0285339	
-0.0285339	
-0.0285339	
-0.0282288	
-0.0279236	
-0.0270081	
-0.0259399	
-0.0259399	
-0.0256348	
-0.0257874	
-0.0262451	
-0.0259399	
-0.0257874	
-0.0262451	
-0.0267029	
-0.0279236	
-0.0283813	
-0.0283813	
-0.0285339	
-0.0285339	
-0.0285339	
-0.0283813	
-0.0285339	
-0.0282288	
-0.0282288	
-0.0280762	
-0.0286865	
-0.0279236	
-0.0265503	
-0.0260925	
-0.0262451	
-0.0257874	
-0.025177	
-0.0242615	
-0.0233459	
-0.0236511	
-0.0236511	
-0.0234985	
-0.0227356	
-0.0213623	
-0.0219727	
-0.0228882	
-0.0236511	
-0.0234985	
-0.0238037	
-0.0236511	
-0.0236511	
-0.0241089	
-0.0254822	
-0.0256348	
-0.0256348	
-0.0259399	
-0.0260925	
-0.0263977	
-0.0279236	
-0.0282288	
-0.0286865	
-0.0288391	
-0.0282288	
-0.0291443	
-0.0302124	
-0.0309753	
-0.0309753	
-0.0311279	
-0.0309753	
-0.0309753	
-0.0312805	
-0.030365	
-0.0289917	
-0.0291443	
-0.0302124	
-0.0312805	
-0.0309753	
-0.0308228	
-0.0306702	
-0.0309753	
-0.0309753	
-0.0309753	
-0.0308228	
-0.0309753	
-0.0309753	
-0.0308228	
-0.0308228	
-0.0308228	
-0.0302124	
-0.0289917	
-0.0288391	
-0.0286865	
-0.0285339	
-0.0282288	
-0.0285339	
-0.0282288	
-0.0285339	
-0.0280762	
-0.0265503	
-0.0259399	
-0.0262451	
-0.0262451	
-0.0263977	
-0.0262451	
-0.0262451	
-0.0259399	
-0.0260925	
-0.0257874	
-0.0256348	
-0.0259399	
-0.0256348	
-0.0254822	
-0.0260925	
-0.0256348	
-0.0242615	
-0.0234985	
-0.0236511	
-0.0234985	
-0.0236511	
-0.0234985	
-0.0234985	
-0.0234985	
-0.0233459	
-0.0233459	
-0.0239563	
-0.0236511	
-0.0230408	
-0.0238037	
-0.0238037	
-0.0234985	
-0.0234985	
-0.0234985	
-0.0234985	
-0.0236511	
-0.0234985	
-0.0236511	
-0.0233459	
-0.0234985	
-0.0233459	
-0.0231934	
-0.0247192	
-0.0256348	
-0.0257874	
-0.0259399	
-0.0257874	
-0.0256348	
-0.0265503	
-0.0280762	
-0.0282288	
-0.0286865	
-0.0285339	
-0.0279236	
-0.0263977	
-0.0259399	
-0.0259399	
-0.0260925	
-0.0259399	
-0.0260925	
-0.0260925	
-0.0260925	
-0.0262451	
-0.0262451	
-0.0259399	
-0.0259399	
-0.0256348	
-0.0257874	
-0.0263977	
-0.0259399	
-0.0259399	
-0.0257874	
-0.0254822	
-0.0241089	
-0.0234985	
-0.0234985	
-0.0234985	
-0.0239563	
-0.0234985	
-0.0234985	
-0.0236511	
-0.0236511	
-0.0236511	
-0.0234985	
-0.0234985	
-0.0236511	
-0.0236511	
-0.0236511	
-0.0238037	
-0.0233459	
-0.0233459	
-0.0234985	
-0.0224304	
-0.0215149	
-0.0212097	
-0.0209045	
-0.0210571	
-0.0209045	
-0.0215149	
-0.0205994	
-0.0192261	
-0.0189209	
-0.0184631	
-0.0183105	
-0.0166321	
-0.0160217	
-0.0157166	
-0.0144958	
-0.0134277	
-0.0119019	
-0.0114441	
-0.0108337	
-0.00930786	
-0.00915527	
-0.00915527	
-0.0088501	
-0.00823975	
-0.00671387	
-0.00640869	
-0.00610352	
-0.0062561	
-0.00656128	
-0.0062561	
-0.00564575	
-0.00442505	
-0.00411987	
-0.0038147	
-0.0038147	
-0.00457764	
-0.00610352	
-0.00640869	
-0.00640869	
-0.00640869	
-0.00640869	
-0.00656128	
-0.00656128	
-0.0062561	
-0.0062561	
-0.0062561	
-0.00656128	
-0.00808716	
-0.00854492	
-0.00900269	
-0.00930786	
-0.00869751	
-0.00854492	
-0.0088501	
-0.0088501	
-0.0088501	
-0.00854492	
-0.0088501	
-0.00823975	
-0.00732422	
-0.0062561	
-0.00656128	
-0.00610352	
-0.00610352	
-0.00595093	
-0.00457764	
-0.0038147	
-0.00396729	
-0.00366211	
-0.00396729	
-0.00396729	
-0.00396729	
-0.00488281	
-0.00595093	
-0.00640869	
-0.00656128	
-0.00640869	
-0.00671387	
-0.00640869	
-0.00610352	
-0.00656128	
-0.00595093	
-0.00656128	
-0.00778198	
-0.00869751	
-0.00869751	
-0.00900269	
-0.00823975	
-0.00946045	
-0.0108337	
-0.0108337	
-0.0114441	
-0.0112915	
-0.0108337	
-0.00900269	
-0.00915527	
-0.00869751	
-0.0088501	
-0.00854492	
-0.00701904	
-0.00579834	
-0.00473022	
-0.00427246	
-0.00335693	
-0.00183105	
-0.00137329	
-0.000762939	
0.000610352	
0.000915527	
0.000762939	
0.000610352	
0.00106812	
0.0012207	
0.000762939	
0.000915527	
0.000762939	
0.000762939	
0.0012207	
0.0012207	
0.000915527	
0.00106812	
0.000915527	
0.000152588	
-0.00106812	
-0.00137329	
-0.00183105	
-0.00183105	
-0.00167847	
-0.00152588	
-0.00137329	
-0.00137329	
-0.000915527	
0.000457764	
0.00106812	
0.00106812	
0.00137329	
0.0012207	
0.0012207	
0.000762939	
0.000915527	
0.000915527	
0.000305176	
0.00106812	
0.00106812	
0.00106812	
0.000915527	
0.00152588	
0.00259399	
0.00320435	
0.00335693	
0.00350952	
0.00320435	
0.00350952	
0.00320435	
0.00320435	
0.00396729	
0.00518799	
0.00579834	
0.00579834	
0.00564575	
0.00564575	
0.00640869	
0.00778198	
0.00808716	
0.00793457	
0.00854492	
0.00869751	
0.00961304	
0.0105286	
0.010376	
0.0106812	
0.0108337	
0.0105286	
0.0106812	
0.0105286	
0.0109863	
0.0106812	
0.0108337	
0.0105286	
0.0105286	
0.0109863	
0.0125122	
0.0125122	
0.0131226	
0.0131226	
0.01297	
0.0140381	
0.0151062	
0.015564	
0.0152588	
0.015564	
0.015564	
0.0158691	
0.0177002	
0.018158	
0.0180054	
0.0178528	
0.0180054	
0.018158	
0.018158	
0.0184631	
0.019989	
0.0202942	
0.0204468	
0.020752	
0.0201416	
0.0210571	
0.0227356	
0.0227356	
0.0227356	
0.0236511	
0.0248718	
0.0256348	
0.0270081	
0.0285339	
0.0302124	
0.0306702	
0.0323486	
0.0343323	
0.035553	
0.037384	
0.039978	
0.0421143	
0.0444031	
0.0469971	
0.0494385	
0.0514221	
0.0518799	
0.0541687	
0.0566101	
0.0584412	
0.0598145	
0.0616455	
0.0630188	
0.0639343	
0.0643921	
0.0648499	
0.065918	
0.0645447	
0.0642395	
0.0640869	
0.0631714	
0.0624084	
0.0613403	
0.0593567	
0.0575256	
0.0566101	
0.0543213	
0.0520325	
0.0491333	
0.0462341	
0.0428772	
0.039978	
0.0375366	
0.0350952	
0.0325012	
0.0305176	
0.027771	
0.0256348	
0.0230408	
0.020752	
0.019989	
0.0186157	
0.017395	
0.0161743	
0.0154114	
0.0161743	
0.015564	
0.0158691	
0.017395	
0.0180054	
0.0180054	
0.018158	
0.0187683	
0.019989	
0.0210571	
0.0222778	
0.0234985	
0.0247192	
0.0256348	
0.0271606	
0.0282288	
0.0300598	
0.0326538	
0.0344849	
0.035553	
0.0376892	
0.0395203	
0.039978	
0.0415039	
0.0424194	
0.0440979	
0.0454712	
0.0463867	
0.0468445	
0.0474548	
0.0486755	
0.0492859	
0.0495911	
0.0492859	
0.0497437	
0.0514221	
0.0517273	
0.0517273	
0.0517273	
0.0517273	
0.0524902	
0.0537109	
0.0543213	
0.0543213	
0.0552368	
0.0559998	
0.0569153	
0.0572205	
0.0585938	
0.0596619	
0.0611877	
0.0614929	
0.0619507	
0.0636292	
0.0646973	
0.0662231	
0.0666809	
0.0665283	
0.0668335	
0.0683594	
0.0688171	
0.0672913	
0.0669861	
0.0660706	
0.0650024	
0.0637817	
0.0617981	
0.0592041	
0.0567627	
0.0544739	
0.0517273	
0.0497437	
0.0463867	
0.0428772	
0.0396729	
0.0361633	
0.0325012	
0.0285339	
0.0257874	
0.022583	
0.0187683	
0.0151062	
0.0131226	
0.0111389	
0.00869751	
0.0062561	
0.00549316	
0.0038147	
0.00289917	
0.00137329	
0.000457764	
0.000152588	
-0.0012207	
-0.00152588	
-0.00167847	
-0.00167847	
-0.00152588	
-0.00137329	
-0.0012207	
-0.00152588	
-0.00167847	
-0.0012207	
-0.00183105	
-0.00152588	
-0.00244141	
-0.00305176	
-0.00396729	
-0.00473022	
-0.00549316	
-0.0062561	
-0.00701904	
-0.00839233	
-0.0088501	
-0.00869751	
-0.00915527	
-0.00915527	
-0.00946045	
-0.010376	
-0.0115967	
-0.0109863	
-0.0114441	
-0.0114441	
-0.0115967	
-0.0112915	
-0.0114441	
-0.0120544	
-0.0132751	
-0.0138855	
-0.0137329	
-0.0135803	
-0.0135803	
-0.0134277	
-0.0138855	
-0.0135803	
-0.0120544	
-0.0114441	
-0.0109863	
-0.0115967	
-0.0106812	
-0.00946045	
-0.0088501	
-0.00900269	
-0.00900269	
-0.00839233	
-0.00701904	
-0.00717163	
-0.00823975	
-0.00869751	
-0.0088501	
-0.0088501	
-0.00915527	
-0.00900269	
-0.00854492	
-0.00915527	
-0.0088501	
-0.00869751	
-0.00900269	
-0.00900269	
-0.00869751	
-0.00869751	
-0.00839233	
-0.00869751	
-0.0088501	
-0.00900269	
-0.00839233	
-0.00686646	
-0.0062561	
-0.00640869	
-0.0062561	
-0.00564575	
-0.00442505	
-0.00366211	
-0.00411987	
-0.0038147	
-0.00320435	
-0.00198364	
-0.0012207	
-0.00167847	
-0.00167847	
-0.00152588	
-0.00183105	
-0.00152588	
-0.00183105	
-0.00137329	
-0.00137329	
-0.00137329	
-0.000915527	
0.000152588	
0.00106812	
0.000762939	
0.000762939	
0.00152588	
0.00289917	
0.00366211	
0.00350952	
0.00335693	
0.0038147	
0.00534058	
0.00579834	
0.00579834	
0.00579834	
0.00564575	
0.00610352	
0.00778198	
0.00823975	
0.00869751	
0.00976563	
0.0106812	
0.0111389	
0.0126648	
0.0131226	
0.01297	
0.01297	
0.0131226	
0.0128174	
0.0132751	
0.0125122	
0.0114441	
0.0106812	
0.0106812	
0.00900269	
0.00793457	
0.00656128	
0.00610352	
0.00518799	
0.00396729	
0.00320435	
0.00350952	
0.00366211	
0.00518799	
0.00579834	
0.00595093	
0.00778198	
0.00900269	
0.0102234	
0.0111389	
0.01297	
0.0152588	
0.0170898	
0.0186157	
0.0201416	
0.0224304	
0.0234985	
0.0253296	
0.027771	
0.0299072	
0.0326538	
0.0354004	
0.0378418	
0.0402832	
0.0442505	
0.0479126	
0.0537109	
0.0596619	
0.0663757	
0.0740051	
0.0840759	
0.0959778	
0.109863	
0.125427	
0.142365	
0.162811	
0.186157	
0.210876	
0.23819	
0.268707	
0.302124	
0.338135	
0.376434	
0.416718	
0.460205	
0.506287	
0.552979	
0.601501	
0.650787	
0.702667	
0.755157	
0.807495	
0.860748	
0.914154	
0.966949	
1.0199	
1.07178	
1.12289	
1.17142	
1.21902	
1.26495	
1.30798	
1.3472	
1.38229	
1.41403	
1.44135	
1.4653	
1.48254	
1.49612	
1.50513	
1.51016	
1.51077	
1.50848	
1.5033	
1.49338	
1.4801	
1.46423	
1.4447	
1.42181	
1.39526	
1.36475	
1.33057	
1.29349	
1.25214	
1.20728	
1.15906	
1.10855	
1.05499	
0.998993	
0.941772	
0.883331	
0.822906	
0.760803	
0.697632	
0.634308	
0.570679	
0.507355	
0.445404	
0.382385	
0.32074	
0.259857	
0.201111	
0.144501	
0.090332	
0.0378418	
-0.0120544	
-0.0602722	
-0.104675	
-0.146484	
-0.185699	
-0.222931	
-0.256805	
-0.289459	
-0.318146	
-0.343628	
-0.367737	
-0.389862	
-0.409393	
-0.426636	
-0.441132	
-0.453491	
-0.46402	
-0.473633	
-0.480804	
-0.486603	
-0.490417	
-0.491791	
-0.493164	
-0.493011	
-0.491486	
-0.488281	
-0.484161	
-0.479431	
-0.473785	
-0.467834	
-0.461884	
-0.455017	
-0.448151	
-0.4422	
-0.435638	
-0.428314	
-0.420837	
-0.413055	
-0.405731	
-0.398407	
-0.391235	
-0.384369	
-0.378418	
-0.371552	
-0.364532	
-0.357819	
-0.351563	
-0.344696	
-0.337982	
-0.331879	
-0.325623	
-0.319824	
-0.313416	
-0.307922	
-0.30304	
-0.297852	
-0.293121	
-0.288391	
-0.283203	
-0.278625	
-0.273132	
-0.268555	
-0.26413	
-0.26062	
-0.257111	
-0.253448	
-0.249329	
-0.246582	
-0.243378	
-0.239563	
-0.236664	
-0.234375	
-0.231934	
-0.229187	
-0.227051	
-0.224304	
-0.222168	
-0.220184	
-0.218964	
-0.217438	
-0.215454	
-0.213776	
-0.21286	
-0.211182	
-0.210571	
-0.209198	
-0.207977	
-0.206909	
-0.205078	
-0.204315	
-0.202484	
-0.201721	
-0.200348	
-0.198975	
-0.197906	
-0.197144	
-0.195618	
-0.194855	
-0.194855	
-0.192719	
-0.192108	
-0.190735	
-0.189819	
-0.187531	
-0.186005	
-0.184479	
-0.183105	
-0.18219	
-0.181122	
-0.179749	
-0.178375	
-0.177307	
-0.175781	
-0.174713	
-0.173645	
-0.172119	
-0.170593	
-0.170746	
-0.16983	
-0.168457	
-0.167694	
-0.166016	
-0.165863	
-0.164948	
-0.163727	
-0.162811	
-0.163116	
-0.163116	
-0.162964	
-0.162811	
-0.161591	
-0.16037	
-0.160675	
-0.160065	
-0.159149	
-0.158386	
-0.157623	
-0.15625	
-0.155487	
-0.155182	
-0.153809	
-0.153046	
-0.151367	
-0.150909	
-0.150604	
-0.149078	
-0.148468	
-0.147858	
-0.146484	
-0.146179	
-0.145721	
-0.144348	
-0.143738	
-0.142822	
-0.141602	
-0.141449	
-0.141144	
-0.140381	
-0.139618	
-0.138702	
-0.138245	
-0.136566	
-0.135651	
-0.134735	
-0.133667	
-0.133514	
-0.131531	
-0.130768	
-0.1297	
-0.128326	
-0.127258	
-0.126495	
-0.125885	
-0.124512	
-0.123596	
-0.121765	
-0.121918	
-0.121002	
-0.119476	
-0.119324	
-0.119019	
-0.118256	
-0.117188	
-0.116425	
-0.116119	
-0.114746	
-0.114288	
-0.113831	
-0.112152	
-0.111542	
-0.110016	
-0.1091	
-0.108643	
-0.107117	
-0.106354	
-0.10498	
-0.104523	
-0.103455	
-0.102234	
-0.102386	
-0.101624	
-0.100098	
-0.0993347	
-0.098877	
-0.0994873	
-0.098877	
-0.0970459	
-0.0970459	
-0.0970459	
-0.0965881	
-0.0950623	
-0.0947571	
-0.0942993	
-0.0927734	
-0.0918579	
-0.0912476	
-0.0901794	
-0.0897217	
-0.0891113	
-0.0875854	
-0.0875854	
-0.0868225	
-0.085144	
-0.0845337	
-0.0849915	
-0.0840759	
-0.0827026	
-0.0822449	
-0.0823975	
-0.0823975	
-0.0819397	
-0.0804138	
-0.0798035	
-0.0801086	
-0.0798035	
-0.0794983	
-0.0779724	
-0.0775146	
-0.0770569	
-0.0756836	
-0.0752258	
-0.0746155	
-0.072937	
-0.0723267	
-0.0700378	
-0.0697327	
-0.0686646	
-0.0674438	
-0.0657654	
-0.0646973	
-0.063324	
-0.0619507	
-0.0610352	
-0.0605774	
-0.0598145	
-0.0582886	
-0.0579834	
-0.058136	
-0.058136	
-0.0578308	
-0.0578308	
-0.058136	
-0.0582886	
-0.0578308	
-0.0579834	
-0.0576782	
-0.0561523	
-0.055542	
-0.055542	
-0.055542	
-0.0550842	
-0.0534058	
-0.052948	
-0.0520325	
-0.0509644	
-0.0500488	
-0.0483704	
-0.04776	
-0.0463867	
-0.0453186	
-0.0436401	
-0.042572	
-0.0413513	
-0.0402832	
-0.0386047	
-0.0375366	
-0.0361633	
-0.0358582	
-0.0360107	
-0.0352478	
-0.0338745	
-0.0331116	
-0.0334167	
-0.0331116	
-0.0315857	
-0.0309753	
-0.0308228	
-0.0306702	
-0.0309753	
-0.0305176	
-0.0289917	
-0.0288391	
-0.0288391	
-0.0279236	
-0.0267029	
-0.0260925	
-0.0253296	
-0.0241089	
-0.0238037	
-0.0236511	
-0.0230408	
-0.0212097	
-0.0213623	
-0.0205994	
-0.0195313	
-0.0186157	
-0.0180054	
-0.0166321	
-0.0160217	
-0.0158691	
-0.015564	
-0.0146484	
-0.0138855	
-0.01297	
-0.0119019	
-0.0112915	
-0.00930786	
-0.00808716	
-0.00701904	
-0.00640869	
-0.00579834	
-0.00457764	
-0.00366211	
-0.00305176	
-0.00183105	
-0.00106812	
0.000610352	
0.000762939	
0.00137329	
0.00289917	
0.00305176	
0.0038147	
0.0050354	
0.0062561	
0.00778198	
0.00869751	
0.0102234	
0.0109863	
0.0131226	
0.0151062	
0.0157166	
0.0177002	
0.0186157	
0.0201416	
0.0224304	
0.0231934	
0.025177	
0.0276184	
0.0288391	
0.0299072	
0.0308228	
0.0325012	
0.0332642	
0.0344849	
0.0357056	
0.0370789	
0.038147	
0.0393677	
0.039978	
0.0402832	
0.0411987	
0.0427246	
0.0436401	
0.0447083	
0.0466919	
0.0480652	
0.0494385	
0.0517273	
0.0521851	
0.0534058	
0.0549316	
0.0558472	
0.0569153	
0.0587463	
0.0598145	
0.0616455	
0.0621033	
0.0637817	
0.065918	
0.0671387	
0.0680542	
0.0695801	
0.0714111	
0.0732422	
0.0746155	
0.0761414	
0.0772095	
0.0784302	
0.0794983	
0.0810242	
0.0820923	
0.083313	
0.0843811	
0.085907	
0.0866699	
0.0880432	
0.0892639	
0.0909424	
0.0915527	
0.0930786	
0.0941467	
0.09552	
0.0964355	
0.0982666	
0.10025	
0.101166	
0.102844	
0.103912	
0.105286	
0.105743	
0.106049	
0.10788	
0.108185	
0.108795	
0.110168	
0.110321	
0.110626	
0.111237	
0.112762	
0.11322	
0.114136	
0.115356	
0.115204	
0.115814	
0.117493	
0.118561	
0.119781	
0.120544	
0.12085	
0.122375	
0.123291	
0.124817	
0.125732	
0.127106	
0.128021	
0.1297	
0.130615	
0.132294	
0.133209	
0.134735	
0.135345	
0.135498	
0.136871	
0.137329	
0.137482	
0.138092	
0.139465	
0.139771	
0.139923	
0.140228	
0.140228	
0.139923	
0.140076	
0.139771	
0.139771	
0.138397	
0.137787	
0.137634	
0.137329	
0.135651	
0.134583	
0.133209	
0.132751	
0.132294	
0.130768	
0.129547	
0.128174	
0.126953	
0.126038	
0.124969	
0.123444	
0.122528	
0.120239	
0.118713	
0.11734	
0.116119	
0.115204	
0.112915	
0.111084	
0.110016	
0.10849	
0.108185	
0.105591	
0.104218	
0.103302	
0.101624	
0.100098	
0.0985718	
0.0964355	
0.0953674	
0.0935364	
0.0914001	
0.0904846	
0.0886536	
0.0863647	
0.0842285	
0.0817871	
0.0791931	
0.0764465	
0.0738525	
0.0715637	
0.0691223	
0.0657654	
0.0624084	
0.0593567	
0.0567627	
0.0540161	
0.050354	
0.0465393	
0.0427246	
0.039978	
0.0372314	
0.0331116	
0.0299072	
0.0254822	
0.0209045	
0.0180054	
0.0134277	
0.010376	
0.00640869	
0.00289917	
-0.000915527	
-0.00442505	
-0.00839233	
-0.0109863	
-0.0140381	
-0.0183105	
-0.0212097	
-0.0253296	
-0.0283813	
-0.0314331	
-0.0349426	
-0.0378418	
-0.040741	
-0.0437927	
-0.0473022	
-0.0500488	
-0.0534058	
-0.0570679	
-0.0605774	
-0.0646973	
-0.0675964	
-0.0704956	
-0.0746155	
-0.0778198	
-0.0822449	
-0.0843811	
-0.0872803	
-0.0900269	
-0.093689	
-0.0968933	
-0.0994873	
-0.101624	
-0.103912	
-0.106659	
-0.109406	
-0.111847	
-0.114136	
-0.116425	
-0.118866	
-0.12146	
-0.123291	
-0.124359	
-0.126343	
-0.128784	
-0.131226	
-0.133514	
-0.134583	
-0.136261	
-0.139008	
-0.140533	
-0.141449	
-0.14328	
-0.145111	
-0.146484	
-0.147705	
-0.148926	
-0.150604	
-0.150757	
-0.151367	
-0.152435	
-0.153656	
-0.155334	
-0.15564	
-0.15625	
-0.157166	
-0.158234	
-0.158539	
-0.160065	
-0.160522	
-0.160522	
-0.16098	
-0.163269	
-0.162964	
-0.163116	
-0.163422	
-0.162964	
-0.162964	
-0.162506	
-0.161133	
-0.160828	
-0.160522	
-0.16037	
-0.158844	
-0.158386	
-0.157928	
-0.156403	
-0.156097	
-0.155487	
-0.153809	
-0.153198	
-0.153046	
-0.15274	
-0.151978	
-0.151062	
-0.151215	
-0.150909	
-0.151062	
-0.150909	
-0.151062	
-0.151215	
-0.151062	
-0.150909	
-0.150452	
-0.150909	
-0.150757	
-0.150757	
-0.150757	
-0.150909	
-0.150909	
-0.151062	
-0.151215	
-0.150757	
-0.150757	
-0.151062	
-0.150909	
-0.151062	
-0.151062	
-0.151062	
-0.150909	
-0.150909	
-0.150757	
-0.150757	
-0.151215	
-0.151062	
-0.151062	
-0.150757	
-0.151062	
-0.150146	
-0.149384	
-0.148315	
-0.148468	
-0.14801	
-0.146942	
-0.146179	
-0.145569	
-0.144043	
-0.143127	
-0.141907	
-0.141449	
-0.141144	
-0.140686	
-0.13916	
-0.138702	
-0.138092	
-0.136719	
-0.136414	
-0.136261	
-0.135498	
-0.134125	
-0.133057	
-0.131683	
-0.13092	
-0.129395	
-0.128479	
-0.126953	
-0.126495	
-0.124664	
-0.123291	
-0.121613	
-0.119324	
-0.118713	
-0.117493	
-0.116272	
-0.115967	
-0.114746	
-0.114288	
-0.114136	
-0.114136	
-0.114136	
-0.113831	
-0.113983	
-0.113525	
-0.112457	
-0.112305	
-0.111542	
-0.111389	
-0.111847	
-0.111694	
-0.111542	
-0.111084	
-0.109863	
-0.109406	
-0.109406	
-0.108643	
-0.107727	
-0.106812	
-0.106201	
-0.105133	
-0.104523	
-0.104065	
-0.102539	
-0.101013	
-0.10025	
-0.0996399	
-0.098877	
-0.0975037	
-0.0970459	
-0.096283	
-0.0952148	
-0.0939941	
-0.0926208	
-0.0914001	
-0.090332	
-0.0894165	
-0.087738	
-0.0866699	
-0.0854492	
-0.0843811	
-0.0830078	
-0.0817871	
-0.0805664	
-0.0798035	
-0.0794983	
-0.0779724	
-0.0770569	
-0.0753784	
-0.0750732	
-0.0746155	
-0.0732422	
-0.0726318	
-0.0721741	
-0.0706482	
-0.0701904	
-0.0695801	
-0.0682068	
-0.0675964	
-0.067749	
-0.0672913	
-0.0654602	
-0.0653076	
-0.065155	
-0.0653076	
-0.065155	
-0.063324	
-0.0630188	
-0.062561	
-0.0622559	
-0.0608826	
-0.0601196	
-0.0598145	
-0.059967	
-0.0582886	
-0.0582886	
-0.0576782	
-0.0579834	
-0.0572205	
-0.0558472	
-0.0553894	
-0.0553894	
-0.0550842	
-0.0535583	
-0.0531006	
-0.0526428	
-0.0508118	
-0.0500488	
-0.0486755	
-0.0479126	
-0.0474548	
-0.0462341	
-0.0450134	
-0.0437927	
-0.0428772	
-0.0411987	
-0.0408936	
-0.0408936	
-0.040741	
-0.0402832	
-0.0404358	
-0.0387573	
-0.0384521	
-0.0389099	
-0.0401306	
-0.040741	
-0.0408936	
-0.0405884	
-0.0401306	
-0.0387573	
-0.038147	
-0.038147	
-0.0379944	
-0.0379944	
-0.0378418	
-0.037384	
-0.0363159	
-0.0358582	
-0.0357056	
-0.0357056	
-0.0357056	
-0.0357056	
-0.035553	
-0.0357056	
-0.0360107	
-0.0360107	
-0.0357056	
-0.0352478	
-0.0340271	
-0.0331116	
-0.0332642	
-0.0334167	
-0.0332642	
-0.0334167	
-0.0331116	
-0.0331116	
-0.0331116	
-0.0332642	
-0.0331116	
-0.0334167	
-0.0334167	
-0.0337219	
-0.0332642	
-0.0331116	
-0.032959	
-0.0315857	
-0.0308228	
-0.0312805	
-0.0311279	
-0.0309753	
-0.030365	
-0.0291443	
-0.0286865	
-0.0282288	
-0.0260925	
-0.0250244	
-0.0239563	
-0.0233459	
-0.0213623	
-0.0210571	
-0.0205994	
-0.0190735	
-0.0186157	
-0.0186157	
-0.0187683	
-0.0183105	
-0.0183105	
-0.0169373	
-0.0163269	
-0.0161743	
-0.0163269	
-0.0163269	
-0.0161743	
-0.0164795	
-0.0163269	
-0.0158691	
-0.0144958	
-0.0137329	
-0.0135803	
-0.0140381	
-0.0138855	
-0.0137329	
-0.0138855	
-0.0135803	
-0.0137329	
-0.0135803	
-0.0140381	
-0.0140381	
-0.0137329	
-0.0144958	
-0.015564	
-0.0154114	
-0.0160217	
-0.0158691	
-0.0163269	
-0.0184631	
-0.0189209	
-0.018158	
-0.0184631	
-0.0184631	
-0.0183105	
-0.0184631	
-0.0186157	
-0.0187683	
-0.0186157	
-0.0186157	
-0.0192261	
-0.0204468	
-0.0212097	
-0.0210571	
-0.0209045	
-0.0210571	
-0.0210571	
-0.0216675	
-0.0228882	
-0.0233459	
-0.0236511	
-0.0233459	
-0.0234985	
-0.0233459	
-0.0228882	
-0.0215149	
-0.0210571	
-0.020752	
-0.0190735	
-0.0186157	
-0.0178528	
-0.0170898	
-0.0163269	
-0.0161743	
-0.0157166	
-0.0141907	
-0.0140381	
-0.0134277	
-0.0137329	
-0.0135803	
-0.0135803	
-0.0137329	
-0.0138855	
-0.0140381	
-0.0135803	
-0.0143433	
-0.015564	
-0.0163269	
-0.0163269	
-0.0160217	
-0.0163269	
-0.0167847	
-0.0180054	
-0.0187683	
-0.0184631	
-0.0186157	
-0.0184631	
-0.0187683	
-0.0190735	
-0.0204468	
-0.0209045	
-0.0212097	
-0.0209045	
-0.0210571	
-0.0212097	
-0.0209045	
-0.0210571	
-0.0213623	
-0.0227356	
-0.0236511	
-0.0236511	
-0.0236511	
-0.0234985	
-0.0230408	
-0.0231934	
-0.0236511	
-0.0238037	
-0.0253296	
-0.0262451	
-0.0257874	
-0.0259399	
-0.0259399	
-0.0260925	
-0.0265503	
-0.0282288	
-0.0286865	
-0.0286865	
-0.0282288	
-0.0282288	
-0.0286865	
-0.0283813	
-0.0286865	
-0.0279236	
-0.0265503	
-0.0260925	
-0.0262451	
-0.0257874	
-0.0260925	
-0.0259399	
-0.0260925	
-0.0256348	
-0.0256348	
-0.0262451	
-0.0257874	
-0.0262451	
-0.0254822	
-0.0259399	
-0.0263977	
-0.0254822	
-0.0239563	
-0.0234985	
-0.0233459	
-0.0238037	
-0.0239563	
-0.0238037	
-0.0236511	
-0.0230408	
-0.0218201	
-0.0212097	
-0.0209045	
-0.0209045	
-0.0215149	
-0.0213623	
-0.0212097	
-0.0209045	
-0.0212097	
-0.0212097	
-0.0212097	
-0.0210571	
-0.0209045	
-0.0209045	
-0.020752	
-0.0209045	
-0.0204468	
-0.0212097	
-0.0212097	
-0.0215149	
-0.0213623	
-0.0210571	
-0.0210571	
-0.0212097	
-0.0210571	
-0.0212097	
-0.0212097	
-0.0210571	
-0.0210571	
-0.020752	
-0.0212097	
-0.0205994	
-0.0190735	
-0.0187683	
-0.0187683	
-0.0186157	
-0.0186157	
-0.0178528	
-0.0167847	
-0.0161743	
-0.0157166	
-0.0163269	
-0.0157166	
-0.0143433	
-0.0137329	
-0.0138855	
-0.0137329	
-0.0137329	
-0.0140381	
-0.0132751	
-0.0140381	
-0.0137329	
-0.0138855	
-0.0137329	
-0.0137329	
-0.0135803	
-0.0137329	
-0.0137329	
-0.0143433	
-0.0157166	
-0.0160217	
-0.0163269	
-0.0166321	
-0.0160217	
-0.0160217	
-0.0160217	
-0.0158691	
-0.0161743	
-0.0161743	
-0.0154114	
-0.0140381	
-0.0137329	
-0.0138855	
-0.0138855	
-0.0131226	
-0.0119019	
-0.0111389	
-0.0108337	
-0.00930786	
-0.00930786	
-0.0088501	
-0.00823975	
-0.00686646	
-0.0062561	
-0.00656128	
-0.00610352	
-0.0062561	
-0.00640869	
-0.0062561	
-0.00640869	
-0.00595093	
-0.00686646	
-0.00839233	
-0.0088501	
-0.00900269	
-0.00915527	
-0.00854492	
-0.0088501	
-0.00869751	
-0.00869751	
-0.00839233	
-0.00900269	
-0.00869751	
-0.0088501	
-0.0088501	
-0.0088501	
-0.00900269	
-0.00900269	
-0.00839233	
-0.00869751	
-0.00869751	
-0.00839233	
-0.00717163	
-0.00640869	
-0.00564575	
-0.00457764	
-0.00350952	
-0.00228882	
-0.00152588	
-0.00106812	
0.000457764	
0.000915527	
0.0012207	
0.00274658	
0.00335693	
0.00320435	
0.00366211	
0.00335693	
0.00350952	
0.00350952	
0.00320435	
0.00335693	
0.00366211	
0.00259399	
0.00137329	
0.00106812	
0.00137329	
0.000762939	
0.000915527	
0.000762939	
0.000610352	
0.00106812	
0.00152588	
0.00137329	
0.000762939	
0.00106812	
0.00106812	
0.0012207	
0.000915527	
0.000610352	
0.000762939	
0.00152588	
0.00289917	
0.00320435	
0.00320435	
0.00320435	
0.00350952	
0.00350952	
0.00335693	
0.00305176	
0.00320435	
0.00305176	
0.00350952	
0.00320435	
0.00335693	
0.00335693	
0.00320435	
0.00350952	
0.00350952	
0.00259399	
0.00152588	
0.000762939	
0.000762939	
0.00106812	
0.00137329	
0.000762939	
0.000610352	
0.000457764	
0.000915527	
0.000610352	
0.000610352	
0.000915527	
0.000915527	
0.00106812	
0.0012207	
0.0012207	
0.000762939	
0.00106812	
0.000610352	
0.000762939	
0.000762939	
0.000610352	
0.000762939	
0.0012207	
0.00106812	
0.00106812	
0.000610352	
0.0012207	
0.000610352	
0.000762939	
0.000457764	
0.000152588	
-0.000915527	
-0.00167847	
-0.0012207	
-0.00152588	
-0.00152588	
-0.00106812	
0.000305176	
0.000610352	
0.000915527	
0.000610352	
0.000762939	
0.00152588	
0.00305176	
0.00350952	
0.00335693	
0.00366211	
0.00335693	
0.00350952	
0.00335693	
0.00320435	
0.00305176	
0.00305176	
0.00335693	
0.00335693	
0.00350952	
0.00320435	
0.00366211	
0.00335693	
0.00366211	
0.00350952	
0.00335693	
0.00366211	
0.00518799	
0.00564575	
0.00564575	
0.00579834	
0.00579834	
0.00564575	
0.00640869	
0.00778198	
0.00808716	
0.00839233	
0.00900269	
0.00991821	
0.0105286	
0.0105286	
0.0112915	
0.012207	
0.01297	
0.0131226	
0.0128174	
0.0125122	
0.0112915	
0.0105286	
0.0106812	
0.0108337	
0.0106812	
0.0106812	
0.0108337	
0.0100708	
0.00854492	
0.00808716	
0.00808716	
0.00793457	
0.00793457	
0.00839233	
0.00808716	
0.00854492	
0.0088501	
0.00991821	
0.0106812	
0.0106812	
0.0106812	
0.0114441	
0.0123596	
0.0131226	
0.0128174	
0.0135803	
0.0146484	
0.015564	
0.015564	
0.015564	
0.015564	
0.0158691	
0.0175476	
0.0180054	
0.0178528	
0.0180054	
0.0180054	
0.0180054	
0.0180054	
0.0180054	
0.018158	
0.018158	
0.0186157	
0.0196838	
0.0202942	
0.0212097	
0.0227356	
0.0256348	
0.0271606	
0.0283813	
0.0308228	
0.0344849	
0.037384	
0.0396729	
0.0418091	
0.0442505	
0.0468445	
0.0498962	
0.0524902	
0.0544739	
0.0569153	
0.0593567	
0.0616455	
0.0621033	
0.0643921	
0.065918	
0.0669861	
0.068512	
0.0694275	
0.0708008	
0.0715637	
0.0717163	
0.0715637	
0.0715637	
0.0717163	
0.0709534	
0.0698853	
0.068512	
0.0666809	
0.0640869	
0.0622559	
0.0593567	
0.0572205	
0.0544739	
0.0517273	
0.0494385	
0.0468445	
0.0447083	
0.0419617	
0.0396729	
0.0358582	
0.0332642	
0.0305176	
0.0274658	
0.0254822	
0.0230408	
0.0202942	
0.0186157	
0.0169373	
0.0158691	
0.0152588	
0.0140381	
0.0132751	
0.0132751	
0.01297	
0.0131226	
0.0132751	
0.0135803	
0.0141907	
0.015564	
0.0161743	
0.017395	
0.0184631	
0.0195313	
0.0209045	
0.022583	
0.0233459	
0.025177	
0.0270081	
0.0280762	
0.0302124	
0.032196	
0.0332642	
0.0350952	
0.0372314	
0.038147	
0.0396729	
0.039978	
0.0415039	
0.0421143	
0.042572	
0.0440979	
0.0442505	
0.0448608	
0.0447083	
0.0440979	
0.0447083	
0.0445557	
0.0440979	
0.0447083	
0.0444031	
0.0445557	
0.0453186	
0.0468445	
0.0471497	
0.04776	
0.0489807	
0.0497437	
0.0512695	
0.0521851	
0.0537109	
0.0549316	
0.0572205	
0.0585938	
0.0598145	
0.0608826	
0.0616455	
0.0621033	
0.0636292	
0.0639343	
0.0634766	
0.062561	
0.0619507	
0.0611877	
0.0595093	
0.0569153	
0.0544739	
0.0518799	
0.0497437	
0.0463867	
0.0424194	
0.0401306	
0.0378418	
0.0344849	
0.0308228	
0.0279236	
0.025177	
0.0228882	
0.0204468	
0.018158	
0.0154114	
0.0132751	
0.0112915	
0.0102234	
0.00839233	
0.00610352	
0.00411987	
0.00289917	
0.00137329	
0.000152588	
-0.00152588	
-0.00335693	
-0.00457764	
-0.00579834	
-0.0062561	
-0.00686646	
-0.00823975	
-0.00900269	
-0.00930786	
-0.0106812	
-0.0114441	
-0.0117493	
-0.0132751	
-0.0135803	
-0.0138855	
-0.015564	
-0.0161743	
-0.0161743	
-0.0167847	
-0.018158	
-0.0186157	
-0.0186157	
-0.0186157	
-0.0189209	
-0.0184631	
-0.0183105	
-0.0184631	
-0.0187683	
-0.0184631	
-0.0186157	
-0.0184631	
-0.0186157	
-0.0186157	
-0.0190735	
-0.0187683	
-0.0187683	
-0.0186157	
-0.0184631	
-0.0180054	
-0.0161743	
-0.0163269	
-0.0160217	
-0.0158691	
-0.0163269	
-0.015564	
-0.0144958	
-0.0138855	
-0.0137329	
-0.0138855	
-0.0131226	
-0.0119019	
-0.0111389	
-0.0112915	
-0.0112915	
-0.0114441	
-0.0111389	
-0.0112915	
-0.0114441	
-0.0112915	
-0.0114441	
-0.0106812	
-0.0112915	
-0.0111389	
-0.0117493	
-0.0111389	
-0.0112915	
-0.0112915	
-0.0114441	
-0.0109863	
-0.0112915	
-0.0112915	
-0.0111389	
-0.0112915	
-0.0114441	
-0.0114441	
-0.0117493	
-0.0109863	
-0.0106812	
-0.00946045	
-0.0088501	
-0.00915527	
-0.00854492	
-0.00823975	
-0.00640869	
-0.00610352	
-0.00640869	
-0.00656128	
-0.0062561	
-0.00671387	
-0.00656128	
-0.00671387	
-0.00656128	
-0.0062561	
-0.00640869	
-0.0062561	
-0.0062561	
-0.00640869	
-0.00656128	
-0.00640869	
-0.0062561	
-0.00610352	
-0.00640869	
-0.00640869	
-0.00656128	
-0.00579834	
-0.00473022	
-0.00411987	
-0.00396729	
-0.00366211	
-0.00213623	
-0.00152588	
-0.000762939	
0.000305176	
0.000762939	
0.000610352	
0.00137329	
0.00289917	
0.00305176	
0.00335693	
0.00335693	
0.00335693	
0.00274658	
0.00152588	
0.00106812	
0.000762939	
-0.000610352	
-0.00183105	
-0.00289917	
-0.00396729	
-0.00366211	
-0.00457764	
-0.00579834	
-0.00564575	
-0.00442505	
-0.00442505	
-0.00305176	
-0.00183105	
-0.0012207	
0.000305176	
0.00137329	
0.00335693	
0.00549316	
0.00839233	
0.0102234	
0.0112915	
0.01297	
0.0154114	
0.0178528	
0.0198364	
0.020752	
0.022583	
0.0250244	
0.027771	
0.030365	
0.0325012	
0.035553	
0.0398254	
0.0445557	
0.0497437	
0.0566101	
0.0648499	
0.0733948	
0.0839233	
0.0965881	
0.112762	
0.130157	
0.149841	
0.172119	
0.196533	
0.223846	
0.25528	
0.288544	
0.324097	
0.362549	
0.4039	
0.447845	
0.493774	
0.540771	
0.589905	
0.640869	
0.692749	
0.746307	
0.799866	
0.853882	
0.907745	
0.961761	
1.01563	
1.06857	
1.12076	
1.1702	
1.21841	
1.26556	
1.31042	
1.35056	
1.3887	
1.42181	
1.45096	
1.47537	
1.49582	
1.51215	
1.52206	
1.52786	
1.53	
1.52771	
1.52267	
1.51276	
1.49948	
1.48361	
1.46393	
1.44058	
1.41327	
1.38184	
1.34567	
1.3063	
1.26419	
1.21826	
1.16898	
1.11649	
1.0614	
1.00357	
0.944977	
0.88501	
0.823059	
0.760651	
0.697327	
0.633545	
0.56839	
0.503693	
0.43869	
0.374908	
0.310822	
0.247803	
0.186005	
0.127411	
0.0709534	
0.0175476	
-0.0340271	
-0.08255	
-0.1297	
-0.173187	
-0.21286	
-0.250092	
-0.283813	
-0.313873	
-0.341187	
-0.367889	
-0.389557	
-0.409698	
-0.426636	
-0.441895	
-0.453796	
-0.464172	
-0.472412	
-0.478668	
-0.483093	
-0.486298	
-0.488281	
-0.488739	
-0.486755	
-0.484467	
-0.480957	
-0.476837	
-0.471802	
-0.466766	
-0.46051	
-0.454407	
-0.44754	
-0.440979	
-0.43457	
-0.428009	
-0.420685	
-0.413208	
-0.405884	
-0.398407	
-0.391235	
-0.383911	
-0.37674	
-0.369568	
-0.36377	
-0.357056	
-0.349426	
-0.342712	
-0.336914	
-0.3302	
-0.322876	
-0.316925	
-0.310822	
-0.305481	
-0.299988	
-0.293579	
-0.288086	
-0.283051	
-0.279236	
-0.275574	
-0.271301	
-0.268097	
-0.263977	
-0.260925	
-0.257568	
-0.254059	
-0.251465	
-0.249023	
-0.246582	
-0.244141	
-0.241547	
-0.238953	
-0.237274	
-0.236206	
-0.23468	
-0.231934	
-0.229645	
-0.227356	
-0.226593	
-0.225067	
-0.223694	
-0.222473	
-0.222015	
-0.221252	
-0.219574	
-0.219421	
-0.219421	
-0.219574	
-0.218964	
-0.217896	
-0.216827	
-0.217133	
-0.216675	
-0.215149	
-0.214233	
-0.212402	
-0.211487	
-0.209808	
-0.20813	
-0.206757	
-0.204926	
-0.202179	
-0.200043	
-0.197601	
-0.19516	
-0.194397	
-0.192261	
-0.190735	
-0.189362	
-0.188446	
-0.187531	
-0.186157	
-0.185394	
-0.184479	
-0.183411	
-0.182648	
-0.182648	
-0.182495	
-0.18219	
-0.180664	
-0.180511	
-0.179291	
-0.178223	
-0.17807	
-0.177002	
-0.175629	
-0.175018	
-0.173645	
-0.17334	
-0.172272	
-0.171051	
-0.16983	
-0.168915	
-0.167389	
-0.165863	
-0.164795	
-0.163422	
-0.163269	
-0.162811	
-0.161591	
-0.16037	
-0.158691	
-0.158234	
-0.15686	
-0.155334	
-0.154114	
-0.153351	
-0.15274	
-0.151215	
-0.150757	
-0.150299	
-0.149231	
-0.148621	
-0.146637	
-0.146179	
-0.145569	
-0.144196	
-0.143127	
-0.141449	
-0.140839	
-0.139465	
-0.138702	
-0.138245	
-0.137024	
-0.136261	
-0.135651	
-0.134583	
-0.133972	
-0.133057	
-0.131683	
-0.131226	
-0.131073	
-0.129242	
-0.129242	
-0.128479	
-0.126953	
-0.126648	
-0.125885	
-0.124664	
-0.124207	
-0.123444	
-0.12207	
-0.121613	
-0.121307	
-0.119629	
-0.119171	
-0.119171	
-0.118713	
-0.117035	
-0.11673	
-0.115814	
-0.114288	
-0.114136	
-0.113525	
-0.112	
-0.112	
-0.111237	
-0.110016	
-0.1091	
-0.109253	
-0.108948	
-0.107269	
-0.107117	
-0.106964	
-0.106506	
-0.10498	
-0.104218	
-0.104218	
-0.10376	
-0.102234	
-0.102081	
-0.101166	
-0.0999451	
-0.0994873	
-0.0994873	
-0.0987244	
-0.0976563	
-0.0970459	
-0.0967407	
-0.0964355	
-0.0947571	
-0.0947571	
-0.0944519	
-0.0942993	
-0.0926208	
-0.0920105	
-0.0921631	
-0.0917053	
-0.0901794	
-0.0898743	
-0.0894165	
-0.0875854	
-0.0872803	
-0.0865173	
-0.085144	
-0.0836182	
-0.0827026	
-0.0822449	
-0.0817871	
-0.0802612	
-0.0801086	
-0.0791931	
-0.0776672	
-0.0775146	
-0.0772095	
-0.0773621	
-0.0770569	
-0.0753784	
-0.0752258	
-0.0749207	
-0.0752258	
-0.0744629	
-0.0730896	
-0.0721741	
-0.0718689	
-0.070343	
-0.0701904	
-0.0695801	
-0.0679016	
-0.0671387	
-0.0653076	
-0.063324	
-0.0621033	
-0.0604248	
-0.0582886	
-0.0575256	
-0.0561523	
-0.0552368	
-0.0534058	
-0.0526428	
-0.0511169	
-0.0509644	
-0.0500488	
-0.0489807	
-0.0482178	
-0.0473022	
-0.0457764	
-0.0457764	
-0.0457764	
-0.0456238	
-0.0447083	
-0.0439453	
-0.0436401	
-0.0431824	
-0.0421143	
-0.0413513	
-0.0408936	
-0.039978	
-0.0389099	
-0.038147	
-0.038147	
-0.0379944	
-0.0364685	
-0.035553	
-0.0358582	
-0.0357056	
-0.0354004	
-0.0338745	
-0.0332642	
-0.0334167	
-0.0334167	
-0.0335693	
-0.0331116	
-0.0314331	
-0.0311279	
-0.0311279	
-0.0308228	
-0.0306702	
-0.0302124	
-0.0288391	
-0.0285339	
-0.0286865	
-0.027771	
-0.0267029	
-0.025177	
-0.0241089	
-0.0233459	
-0.0216675	
-0.0204468	
-0.0192261	
-0.0180054	
-0.0163269	
-0.0157166	
-0.0135803	
-0.0117493	
-0.0106812	
-0.00946045	
-0.00839233	
-0.00701904	
-0.00656128	
-0.00564575	
-0.00442505	
-0.00366211	
-0.00335693	
-0.00213623	
-0.00152588	
-0.000762939	
-0.000152588	
0.00167847	
0.00274658	
0.00396729	
0.00534058	
0.00610352	
0.00595093	
0.00793457	
0.00839233	
0.0100708	
0.0105286	
0.0109863	
0.012207	
0.0138855	
0.0151062	
0.0152588	
0.0160217	
0.0172424	
0.0184631	
0.0196838	
0.0202942	
0.0209045	
0.0221252	
0.0230408	
0.0234985	
0.0248718	
0.0257874	
0.0271606	
0.0279236	
0.0283813	
0.0299072	
0.0311279	
0.0318909	
0.032196	
0.0331116	
0.0346375	
0.0357056	
0.037384	
0.0379944	
0.0396729	
0.039978	
0.0418091	
0.0427246	
0.0440979	
0.0450134	
0.0468445	
0.0488281	
0.0500488	
0.0514221	
0.0523376	
0.0544739	
0.0559998	
0.0572205	
0.0595093	
0.0611877	
0.0619507	
0.0642395	
0.0663757	
0.068512	
0.0695801	
0.0714111	
0.0738525	
0.0758362	
0.0769043	
0.0785828	
0.080719	
0.0819397	
0.0836182	
0.085907	
0.0880432	
0.0894165	
0.0914001	
0.0935364	
0.0953674	
0.0964355	
0.0984192	
0.10025	
0.101166	
0.102692	
0.103912	
0.105133	
0.106354	
0.10788	
0.108185	
0.108643	
0.109558	
0.110626	
0.111237	
0.112457	
0.113525	
0.114899	
0.115509	
0.116272	
0.117798	
0.118561	
0.119934	
0.12085	
0.122528	
0.123444	
0.124969	
0.125732	
0.127563	
0.129547	
0.13092	
0.132294	
0.134735	
0.135651	
0.136719	
0.13855	
0.139465	
0.140076	
0.140533	
0.142212	
0.142517	
0.142059	
0.14267	
0.142212	
0.142365	
0.142975	
0.144501	
0.144958	
0.144958	
0.144501	
0.145264	
0.14679	
0.147247	
0.147858	
0.147705	
0.148926	
0.149536	
0.150604	
0.151825	
0.15213	
0.153198	
0.154419	
0.154724	
0.154877	
0.154724	
0.154877	
0.154419	
0.154877	
0.154724	
0.154114	
0.15274	
0.151825	
0.150452	
0.149078	
0.1474	
0.145416	
0.144806	
0.142517	
0.140533	
0.139923	
0.137482	
0.13504	
0.133057	
0.131836	
0.130463	
0.127869	
0.12558	
0.123444	
0.12146	
0.120239	
0.11734	
0.113373	
0.110779	
0.108032	
0.105743	
0.102539	
0.098877	
0.0959778	
0.092926	
0.0892639	
0.0862122	
0.0831604	
0.0794983	
0.0764465	
0.0735474	
0.0697327	
0.0666809	
0.0642395	
0.0617981	
0.0592041	
0.0569153	
0.0541687	
0.0521851	
0.0494385	
0.0471497	
0.0445557	
0.0424194	
0.0401306	
0.0379944	
0.0352478	
0.0328064	
0.0297546	
0.0260925	
0.0222778	
0.0187683	
0.014801	
0.0106812	
0.00549316	
0.00137329	
-0.00244141	
-0.00610352	
-0.0112915	
-0.0180054	
-0.0231934	
-0.0288391	
-0.0326538	
-0.0366211	
-0.040741	
-0.0454712	
-0.0506592	
-0.0546265	
-0.0582886	
-0.0622559	
-0.0653076	
-0.0695801	
-0.072937	
-0.0770569	
-0.0798035	
-0.0820923	
-0.085144	
-0.0889587	
-0.0920105	
-0.0944519	
-0.0968933	
-0.0993347	
-0.101624	
-0.104523	
-0.106659	
-0.109406	
-0.111694	
-0.113983	
-0.116425	
-0.119171	
-0.12146	
-0.123901	
-0.126495	
-0.128784	
-0.131226	
-0.133972	
-0.136108	
-0.138397	
-0.140991	
-0.143585	
-0.145874	
-0.148468	
-0.151062	
-0.152283	
-0.154266	
-0.15625	
-0.157928	
-0.158386	
-0.160675	
-0.162354	
-0.163422	
-0.1651	
-0.166016	
-0.167084	
-0.167694	
-0.16861	
-0.16983	
-0.170441	
-0.170441	
-0.171356	
-0.172424	
-0.172729	
-0.172882	
-0.173187	
-0.173035	
-0.173645	
-0.175171	
-0.175323	
-0.175476	
-0.175171	
-0.175781	
-0.177155	
-0.177612	
-0.177765	
-0.177765	
-0.17807	
-0.177917	
-0.177917	
-0.177917	
-0.177917	
-0.17746	
-0.177612	
-0.177155	
-0.175323	
-0.175018	
-0.175171	
-0.174713	
-0.173645	
-0.172577	
-0.173035	
-0.172882	
-0.173035	
-0.172882	
-0.172729	
-0.172424	
-0.172882	
-0.173187	
-0.172577	
-0.173187	
-0.172729	
-0.172882	
-0.17334	
-0.175018	
-0.175476	
-0.175171	
-0.175323	
-0.175323	
-0.175171	
-0.175018	
-0.17334	
-0.173035	
-0.172577	
-0.172272	
-0.170746	
-0.170441	
-0.169983	
-0.168457	
-0.167694	
-0.16571	
-0.164642	
-0.163574	
-0.161285	
-0.160217	
-0.157928	
-0.15625	
-0.155334	
-0.153656	
-0.152588	
-0.151062	
-0.151062	
-0.150299	
-0.148926	
-0.148773	
-0.148163	
-0.146332	
-0.146179	
-0.145416	
-0.14389	
-0.143738	
-0.142975	
-0.141754	
-0.140686	
-0.139618	
-0.138702	
-0.138092	
-0.136871	
-0.136566	
-0.136108	
-0.135803	
-0.134125	
-0.133972	
-0.133667	
-0.132904	
-0.132141	
-0.131531	
-0.131226	
-0.131073	
-0.131531	
-0.131226	
-0.131378	
-0.130615	
-0.129547	
-0.128937	
-0.128937	
-0.128784	
-0.129089	
-0.128784	
-0.128632	
-0.128479	
-0.126648	
-0.126038	
-0.124359	
-0.123444	
-0.121613	
-0.119629	
-0.118866	
-0.116272	
-0.114136	
-0.111847	
-0.109711	
-0.108795	
-0.106812	
-0.104675	
-0.103912	
-0.102386	
-0.101471	
-0.0997925	
-0.0993347	
-0.0991821	
-0.0973511	
-0.0968933	
-0.0970459	
-0.0964355	
-0.0949097	
-0.0944519	
-0.0942993	
-0.0946045	
-0.0938416	
-0.0926208	
-0.0921631	
-0.0920105	
-0.0920105	
-0.0920105	
-0.0926208	
-0.0918579	
-0.0900269	
-0.0894165	
-0.0897217	
-0.0895691	
-0.0895691	
-0.0895691	
-0.0895691	
-0.0892639	
-0.0892639	
-0.0888062	
-0.087738	
-0.0872803	
-0.0871277	
-0.0849915	
-0.0848389	
-0.0840759	
-0.0823975	
-0.0804138	
-0.0794983	
-0.0779724	
-0.0770569	
-0.0747681	
-0.0730896	
-0.0720215	
-0.0706482	
-0.0697327	
-0.0682068	
-0.0674438	
-0.0668335	
-0.065918	
-0.0653076	
-0.0648499	
-0.0648499	
-0.0637817	
-0.0627136	
-0.0624084	
-0.0627136	
-0.0627136	
-0.0630188	
-0.062561	
-0.0630188	
-0.0622559	
-0.0610352	
-0.0602722	
-0.0605774	
-0.0598145	
-0.0582886	
-0.057373	
-0.055542	
-0.0547791	
-0.0535583	
-0.0521851	
-0.0508118	
-0.0498962	
-0.0488281	
-0.0483704	
-0.0473022	
-0.0460815	
-0.0456238	
-0.0457764	
-0.0456238	
-0.045166	
-0.0436401	
-0.0428772	
-0.0434875	
-0.0431824	
-0.0434875	
-0.0431824	
-0.0430298	
-0.0436401	
-0.0450134	
-0.0456238	
-0.0454712	
-0.0454712	
-0.0457764	
-0.0454712	
-0.0456238	
-0.0462341	
-0.04776	
-0.0476074	
-0.0482178	
-0.0480652	
-0.0482178	
-0.0480652	
-0.0479126	
-0.0474548	
-0.0465393	
-0.0457764	
-0.0450134	
-0.0436401	
-0.0427246	
-0.0411987	
-0.0405884	
-0.0401306	
-0.0389099	
-0.0379944	
-0.0364685	
-0.035553	
-0.0337219	
-0.0334167	
-0.0332642	
-0.0331116	
-0.0315857	
-0.0309753	
-0.0306702	
-0.0305176	
-0.0309753	
-0.0311279	
-0.0305176	
-0.0291443	
-0.0286865	
-0.0283813	
-0.0283813	
-0.0282288	
-0.0283813	
-0.0279236	
-0.0265503	
-0.0259399	
-0.0260925	
-0.0257874	
-0.0259399	
-0.0267029	
-0.0280762	
-0.0283813	
-0.0283813	
-0.0288391	
-0.0285339	
-0.0283813	
-0.0289917	
-0.0305176	
-0.0305176	
-0.0289917	
-0.0283813	
-0.0282288	
-0.0282288	
-0.0280762	
-0.0285339	
-0.0279236	
-0.0263977	
-0.0263977	
-0.0262451	
-0.0260925	
-0.0260925	
-0.0259399	
-0.0259399	
-0.0265503	
-0.0257874	
-0.0259399	
-0.0257874	
-0.0259399	
-0.0257874	
-0.0260925	
-0.0259399	
-0.0260925	
-0.0260925	
-0.0259399	
-0.0257874	
-0.0260925	
-0.0259399	
-0.0259399	
-0.0259399	
-0.0262451	
-0.0260925	
-0.0262451	
-0.0256348	
-0.0241089	
-0.0238037	
-0.0234985	
-0.0231934	
-0.0234985	
-0.0236511	
-0.0236511	
-0.0234985	
-0.0231934	
-0.0234985	
-0.0234985	
-0.0231934	
-0.0234985	
-0.0233459	
-0.0233459	
-0.0236511	
-0.0234985	
-0.0238037	
-0.0241089	
-0.0239563	
-0.0238037	
-0.0241089	
-0.0253296	
-0.0259399	
-0.0260925	
-0.0260925	
-0.0260925	
-0.0260925	
-0.0262451	
-0.0260925	
-0.0259399	
-0.0259399	
-0.0260925	
-0.0256348	
-0.0259399	
-0.0260925	
-0.0256348	
-0.0242615	
-0.0236511	
-0.0227356	
-0.0216675	
-0.0209045	
-0.0212097	
-0.0202942	
-0.0190735	
-0.0189209	
-0.0190735	
-0.0190735	
-0.0186157	
-0.0192261	
-0.0186157	
-0.0186157	
-0.0184631	
-0.0186157	
-0.0183105	
-0.0184631	
-0.0186157	
-0.0187683	
-0.0186157	
-0.0187683	
-0.0184631	
-0.0186157	
-0.0187683	
-0.0187683	
-0.0184631	
-0.0184631	
-0.0187683	
-0.0180054	
-0.0166321	
-0.0163269	
-0.0163269	
-0.0161743	
-0.0161743	
-0.0161743	
-0.0158691	
-0.0161743	
-0.0163269	
-0.0161743	
-0.0166321	
-0.0164795	
-0.0164795	
-0.0169373	
-0.0183105	
-0.0183105	
-0.0186157	
-0.0190735	
-0.0201416	
-0.0209045	
-0.0215149	
-0.0231934	
-0.0236511	
-0.0239563	
-0.0238037	
-0.0254822	
-0.0263977	
-0.0262451	
-0.0260925	
-0.0259399	
-0.0260925	
-0.0257874	
-0.0257874	
-0.0257874	
-0.0260925	
-0.0260925	
-0.0256348	
-0.0242615	
-0.0234985	
-0.0230408	
-0.0218201	
-0.0213623	
-0.0205994	
-0.0193787	
-0.0183105	
-0.0166321	
-0.0157166	
-0.0140381	
-0.0137329	
-0.01297	
-0.0119019	
-0.0114441	
-0.0108337	
-0.0111389	
-0.0117493	
-0.0132751	
-0.0135803	
-0.0138855	
-0.0144958	
-0.0152588	
-0.0158691	
-0.0160217	
-0.0160217	
-0.0163269	
-0.0163269	
-0.0160217	
-0.0161743	
-0.0166321	
-0.0183105	
-0.0187683	
-0.0187683	
-0.0186157	
-0.0186157	
-0.0189209	
-0.0184631	
-0.018158	
-0.0187683	
-0.0183105	
-0.0187683	
-0.0183105	
-0.0187683	
-0.0186157	
-0.0186157	
-0.0186157	
-0.0184631	
-0.0186157	
-0.0180054	
-0.0166321	
-0.0164795	
-0.0163269	
-0.0154114	
-0.0141907	
-0.0135803	
-0.0134277	
-0.0137329	
-0.0135803	
-0.0135803	
-0.0140381	
-0.0138855	
-0.0134277	
-0.0135803	
-0.0138855	
-0.0137329	
-0.0135803	
-0.0138855	
-0.0141907	
-0.0152588	
-0.0158691	
-0.0164795	
-0.0163269	
-0.0164795	
-0.0184631	
-0.0187683	
-0.0187683	
-0.0186157	
-0.0189209	
-0.0184631	
-0.0186157	
-0.0189209	
-0.0184631	
-0.0184631	
-0.0180054	
-0.0167847	
-0.0164795	
-0.0163269	
-0.0158691	
-0.0141907	
-0.0138855	
-0.0131226	
-0.0119019	
-0.0112915	
-0.0109863	
-0.00930786	
-0.0088501	
-0.00839233	
-0.00732422	
-0.00640869	
-0.00640869	
-0.00656128	
-0.00640869	
-0.00640869	
-0.00640869	
-0.00640869	
-0.00656128	
-0.00640869	
-0.00656128	
-0.00671387	
-0.00640869	
-0.00640869	
-0.00610352	
-0.00656128	
-0.00640869	
-0.00656128	
-0.00640869	
-0.00640869	
-0.0062561	
-0.0062561	
-0.00610352	
-0.00656128	
-0.0062561	
-0.00640869	
-0.00610352	
-0.00457764	
-0.00396729	
-0.00366211	
-0.00320435	
-0.00213623	
-0.00152588	
-0.00167847	
-0.000762939	
0.000152588	
0.000762939	
0.000915527	
0.000762939	
0.00152588	
0.00274658	
0.00335693	
0.00305176	
0.00335693	
0.00350952	
0.00320435	
0.00289917	
0.00366211	
0.00366211	
0.00350952	
0.00335693	
0.00335693	
0.00289917	
0.00106812	
0.000762939	
0.000915527	
0.00106812	
0.0012207	
0.000152588	
-0.000915527	
-0.0012207	
-0.00152588	
-0.00152588	
-0.00167847	
-0.00183105	
-0.00228882	
-0.00305176	
-0.00198364	
-0.00183105	
-0.00137329	
-0.00137329	
-0.00137329	
-0.00167847	
-0.00106812	
0.000152588	
0.000610352	
0.000610352	
0.00106812	
0.000762939	
0.000915527	
0.00106812	
0.000610352	
0.000610352	
0.000915527	
0.000915527	
0.00106812	
0.000915527	
0.000610352	
0.000762939	
0.0012207	
0.000915527	
0.000762939	
0.000762939	
0.000610352	
0.000762939	
0.00106812	
0.000915527	
0.00106812	
0.000610352	
0.00106812	
0.00106812	
0.00106812	
0.0012207	
0.00289917	
0.00305176	
0.00305176	
0.00289917	
0.00305176	
0.00335693	
0.00289917	
0.00320435	
0.00350952	
0.0038147	
0.00366211	
0.00335693	
0.00366211	
0.00335693	
0.00335693	
0.00320435	
0.00366211	
0.00350952	
0.00320435	
0.00289917	
0.00335693	
0.00335693	
0.00289917	
0.00350952	
0.00366211	
0.00350952	
0.00350952	
0.00350952	
0.00350952	
0.00320435	
0.00152588	
0.00106812	
0.00167847	
0.00259399	
0.00320435	
0.00320435	
0.00335693	
0.00335693	
0.00335693	
0.00350952	
0.00320435	
0.0038147	
0.00549316	
0.00579834	
0.00579834	
0.00549316	
0.00564575	
0.00564575	
0.00579834	
0.00579834	
0.00595093	
0.00579834	
0.00564575	
0.00579834	
0.00579834	
0.00579834	
0.0062561	
0.00549316	
0.00595093	
0.00595093	
0.00549316	
0.00549316	
0.00549316	
0.00518799	
0.00579834	
0.00579834	
0.0062561	
0.00762939	
0.00808716	
0.00839233	
0.00823975	
0.00839233	
0.00823975	
0.00839233	
0.00808716	
0.00823975	
0.00823975	
0.0088501	
0.0102234	
0.0105286	
0.0106812	
0.0106812	
0.0106812	
0.0108337	
0.0105286	
0.0106812	
0.0105286	
0.010376	
0.010376	
0.0106812	
0.0105286	
0.0106812	
0.0105286	
0.0106812	
0.0109863	
0.0108337	
0.0108337	
0.0102234	
0.00869751	
0.00808716	
0.00793457	
0.00808716	
0.00839233	
0.0102234	
0.010376	
0.0106812	
0.0106812	
0.0102234	
0.0106812	
0.010376	
0.0115967	
0.012207	
0.0128174	
0.0128174	
0.0131226	
0.01297	
0.0132751	
0.0132751	
0.0134277	
0.0132751	
0.0134277	
0.0128174	
0.0128174	
0.01297	
0.0131226	
0.0131226	
0.0134277	
0.0131226	
0.0126648	
0.0125122	
0.0112915	
0.0105286	
0.010376	
0.0111389	
0.0125122	
0.01297	
0.0131226	
0.0132751	
0.01297	
0.0131226	
0.0128174	
0.0131226	
0.01297	
0.0128174	
0.0128174	
0.0131226	
0.0132751	
0.0131226	
0.01297	
0.0128174	
0.0132751	
0.0128174	
0.01297	
0.0131226	
0.01297	
0.0131226	
0.0132751	
0.01297	
0.0132751	
0.0131226	
0.0135803	
0.0149536	
0.0152588	
0.0160217	
0.0175476	
0.0180054	
0.0184631	
0.0195313	
0.020752	
0.0222778	
0.0234985	
0.0247192	
0.0253296	
0.0259399	
0.0270081	
0.0274658	
0.027771	
0.027771	
0.0280762	
0.0280762	
0.0280762	
0.0279236	
0.0279236	
0.0274658	
0.027771	
0.0276184	
0.0279236	
0.0273132	
0.0276184	
0.0282288	
0.0297546	
0.0309753	
0.0323486	
0.0332642	
0.0354004	
0.0372314	
0.0395203	
0.0398254	
0.0424194	
0.0444031	
0.0471497	
0.0485229	
0.0500488	
0.0520325	
0.0532532	
0.0541687	
0.0553894	
0.0564575	
0.0567627	
0.0569153	
0.0569153	
0.0566101	
0.0563049	
0.0547791	
0.0534058	
0.0524902	
0.0512695	
0.0492859	
0.0468445	
0.0444031	
0.0421143	
0.039978	
0.0376892	
0.0349426	
0.0326538	
0.0306702	
0.0279236	
0.0250244	
0.0230408	
0.0202942	
0.0180054	
0.0160217	
0.0149536	
0.0131226	
0.0111389	
0.0102234	
0.00869751	
0.00839233	
0.00854492	
0.00823975	
0.00823975	
0.00823975	
0.00823975	
0.00793457	
0.00823975	
0.0088501	
0.0102234	
0.010376	
0.0109863	
0.0123596	
0.01297	
0.0140381	
0.014801	
0.0160217	
0.017395	
0.0186157	
0.0198364	
0.0209045	
0.0221252	
0.0238037	
0.025177	
0.0273132	
0.0280762	
0.030365	
0.032196	
0.0331116	
0.0343323	
0.0352478	
0.0367737	
0.0376892	
0.0398254	
0.0398254	
0.0405884	
0.0411987	
0.0419617	
0.0421143	
0.0419617	
0.0427246	
0.0440979	
0.0444031	
0.0445557	
0.0444031	
0.0445557	
0.0447083	
0.0445557	
0.045166	
0.0463867	
0.0471497	
0.0469971	
0.0473022	
0.0488281	
0.0489807	
0.0500488	
0.0514221	
0.0524902	
0.0538635	
0.0541687	
0.0544739	
0.0549316	
0.0564575	
0.0564575	
0.0567627	
0.0566101	
0.0550842	
0.0543213	
0.0540161	
0.0527954	
0.0514221	
0.0491333	
0.0474548	
0.0466919	
0.0447083	
0.0421143	
0.0402832	
0.0375366	
0.0352478	
0.032959	
0.0305176	
0.0283813	
0.0273132	
0.0254822	
0.0227356	
0.020752	
0.0183105	
0.015564	
0.0135803	
0.0125122	
0.0106812	
0.00823975	
0.00595093	
0.00320435	
0.00167847	
0.000152588	
-0.0012207	
-0.00213623	
-0.00335693	
-0.0038147	
-0.00411987	
-0.00457764	
-0.00564575	
-0.00610352	
-0.00686646	
-0.00640869	
-0.00640869	
-0.00701904	
-0.00823975	
-0.0088501	
-0.00854492	
-0.0088501	
-0.00930786	
-0.0106812	
-0.0111389	
-0.0108337	
-0.0112915	
-0.0115967	
-0.0112915	
-0.0109863	
-0.00946045	
-0.00915527	
-0.00823975	
-0.00686646	
-0.00579834	
-0.00442505	
-0.00350952	
-0.00335693	
-0.00183105	
-0.00167847	
-0.00152588	
-0.00137329	
-0.00152588	
-0.00152588	
-0.0012207	
-0.00167847	
-0.00137329	
-0.00137329	
-0.00167847	
-0.00183105	
-0.00335693	
-0.0038147	
-0.00457764	
-0.00579834	
-0.00610352	
-0.00595093	
-0.00640869	
-0.00656128	
-0.00640869	
-0.00701904	
-0.00839233	
-0.00869751	
-0.00900269	
-0.00900269	
-0.00823975	
-0.00701904	
-0.00671387	
-0.00656128	
-0.00656128	
-0.00656128	
-0.00656128	
-0.0062561	
-0.00488281	
-0.00396729	
-0.0038147	
-0.00335693	
-0.00183105	
-0.00167847	
-0.00167847	
-0.00106812	
0.000152588	
0.000610352	
0.00106812	
0.00259399	
0.00320435	
0.00320435	
0.00427246	
0.00518799	
0.00534058	
0.00579834	
0.00595093	
0.00579834	
0.0062561	
0.00762939	
0.00793457	
0.00854492	
0.00778198	
0.00839233	
0.00823975	
0.00808716	
0.00823975	
0.00808716	
0.00793457	
0.00793457	
0.00823975	
0.00793457	
0.00839233	
0.00823975	
0.00823975	
0.00823975	
0.00778198	
0.00671387	
0.00610352	
0.00564575	
0.00549316	
0.00564575	
0.00518799	
0.00396729	
0.00335693	
0.00335693	
0.00335693	
0.00137329	
0.00137329	
0	
-0.000610352	
-0.00167847	
-0.00244141	
-0.00335693	
-0.00366211	
-0.00350952	
-0.0038147	
-0.00411987	
-0.00411987	
-0.00335693	
-0.00244141	
-0.0012207	
0.000305176	
0.00137329	
0.00244141	
0.0038147	
0.00579834	
0.00823975	
0.0102234	
0.0109863	
0.0132751	
0.0146484	
0.0160217	
0.0178528	
0.0196838	
0.0205994	
0.0222778	
0.0233459	
0.025177	
0.0273132	
0.0306702	
0.03479	
0.0378418	
0.0422668	
0.0492859	
0.0564575	
0.0643921	
0.0743103	
0.0863647	
0.100555	
0.116272	
0.134583	
0.155334	
0.179138	
0.206146	
0.235596	
0.267029	
0.302124	
0.340271	
0.379639	
0.421448	
0.465088	
0.510864	
0.559082	
0.608368	
0.658722	
0.710297	
0.762787	
0.815125	
0.868988	
0.922699	
0.9758	
1.02783	
1.07925	
1.13052	
1.17966	
1.22803	
1.2735	
1.31561	
1.35574	
1.39191	
1.4238	
1.45172	
1.47537	
1.49277	
1.50574	
1.5152	
1.52008	
1.52023	
1.51581	
1.50879	
1.49826	
1.48376	
1.46454	
1.44302	
1.418	
1.3887	
1.35666	
1.32065	
1.28128	
1.23749	
1.18988	
1.13983	
1.08627	
1.02997	
0.97168	
0.91217	
0.851288	
0.789642	
0.726776	
0.6633	
0.599365	
0.536041	
0.47226	
0.408325	
0.344696	
0.281525	
0.220184	
0.158691	
0.0999451	
0.0444031	
-0.00747681	
-0.058136	
-0.105438	
-0.150299	
-0.191803	
-0.230408	
-0.266571	
-0.299377	
-0.328522	
-0.355682	
-0.379791	
-0.401459	
-0.419922	
-0.436096	
-0.451508	
-0.463562	
-0.473328	
-0.480804	
-0.486145	
-0.49057	
-0.49408	
-0.495605	
-0.495911	
-0.49408	
-0.491638	
-0.488281	
-0.484467	
-0.479431	
-0.474548	
-0.468903	
-0.462036	
-0.45517	
-0.447998	
-0.439911	
-0.433044	
-0.425568	
-0.418091	
-0.410767	
-0.403595	
-0.396271	
-0.388794	
-0.381775	
-0.373993	
-0.366821	
-0.35965	
-0.352478	
-0.346375	
-0.339355	
-0.332794	
-0.326996	
-0.320587	
-0.315247	
-0.309753	
-0.303497	
-0.298462	
-0.292969	
-0.287933	
-0.283203	
-0.278931	
-0.274048	
-0.270386	
-0.266724	
-0.263214	
-0.259399	
-0.255737	
-0.251923	
-0.249023	
-0.246582	
-0.24353	
-0.239563	
-0.236664	
-0.234833	
-0.233917	
-0.231628	
-0.229492	
-0.227814	
-0.22583	
-0.224762	
-0.222626	
-0.221252	
-0.220337	
-0.219116	
-0.217743	
-0.216675	
-0.215302	
-0.214539	
-0.214081	
-0.212708	
-0.212097	
-0.211792	
-0.210266	
-0.209198	
-0.207825	
-0.207214	
-0.205383	
-0.204773	
-0.20401	
-0.203094	
-0.201874	
-0.199585	
-0.198212	
-0.197144	
-0.19577	
-0.19455	
-0.192719	
-0.190582	
-0.189514	
-0.188446	
-0.187225	
-0.185547	
-0.184937	
-0.183563	
-0.18219	
-0.180511	
-0.180511	
-0.179749	
-0.178375	
-0.177307	
-0.176239	
-0.175323	
-0.175629	
-0.174866	
-0.173492	
-0.172729	
-0.172424	
-0.171204	
-0.170288	
-0.16983	
-0.168457	
-0.166931	
-0.166016	
-0.165558	
-0.164948	
-0.163422	
-0.162964	
-0.162506	
-0.161438	
-0.160217	
-0.158691	
-0.158386	
-0.157471	
-0.156403	
-0.155487	
-0.154114	
-0.153046	
-0.151367	
-0.150452	
-0.148926	
-0.14801	
-0.146637	
-0.145416	
-0.144043	
-0.14328	
-0.141754	
-0.141144	
-0.140533	
-0.139618	
-0.138702	
-0.13855	
-0.137024	
-0.136414	
-0.135803	
-0.134277	
-0.134277	
-0.133667	
-0.133514	
-0.131683	
-0.131226	
-0.131378	
-0.130768	
-0.129242	
-0.129089	
-0.128937	
-0.127869	
-0.126953	
-0.126495	
-0.126038	
-0.126343	
-0.126343	
-0.126343	
-0.12619	
-0.126343	
-0.126648	
-0.126343	
-0.126495	
-0.126495	
-0.126648	
-0.126648	
-0.126801	
-0.126648	
-0.125885	
-0.124207	
-0.124207	
-0.123138	
-0.121918	
-0.121307	
-0.119019	
-0.118713	
-0.11673	
-0.116272	
-0.114899	
-0.113983	
-0.111847	
-0.109863	
-0.108795	
-0.107574	
-0.106506	
-0.10498	
-0.104675	
-0.104218	
-0.104218	
-0.102539	
-0.101929	
-0.101929	
-0.102081	
-0.101929	
-0.101776	
-0.102081	
-0.101776	
-0.101318	
-0.100403	
-0.0993347	
-0.0994873	
-0.0993347	
-0.0973511	
-0.0973511	
-0.0965881	
-0.0949097	
-0.0944519	
-0.0938416	
-0.0927734	
-0.0918579	
-0.0915527	
-0.0900269	
-0.0900269	
-0.0892639	
-0.087738	
-0.0871277	
-0.0866699	
-0.085144	
-0.0848389	
-0.0843811	
-0.0831604	
-0.0817871	
-0.0802612	
-0.0796509	
-0.0793457	
-0.0784302	
-0.0778198	
-0.0767517	
-0.0753784	
-0.0750732	
-0.0752258	
-0.0752258	
-0.0744629	
-0.0730896	
-0.0724792	
-0.0721741	
-0.0723267	
-0.072937	
-0.0721741	
-0.0708008	
-0.0698853	
-0.0700378	
-0.0697327	
-0.0682068	
-0.067749	
-0.0674438	
-0.0666809	
-0.065918	
-0.0654602	
-0.0646973	
-0.0634766	
-0.0624084	
-0.0610352	
-0.0598145	
-0.0585938	
-0.0572205	
-0.0561523	
-0.0547791	
-0.0531006	
-0.0526428	
-0.0509644	
-0.0498962	
-0.0482178	
-0.0480652	
-0.0479126	
-0.0471497	
-0.0462341	
-0.0457764	
-0.0456238	
-0.0450134	
-0.0436401	
-0.0431824	
-0.043335	
-0.043335	
-0.042572	
-0.0413513	
-0.0408936	
-0.040741	
-0.0398254	
-0.0384521	
-0.038147	
-0.0375366	
-0.0363159	
-0.0358582	
-0.0352478	
-0.0337219	
-0.0335693	
-0.032959	
-0.0312805	
-0.030365	
-0.0292969	
-0.0289917	
-0.0279236	
-0.0265503	
-0.0254822	
-0.0239563	
-0.0238037	
-0.0233459	
-0.0216675	
-0.0205994	
-0.0209045	
-0.0202942	
-0.0190735	
-0.0189209	
-0.018158	
-0.0167847	
-0.0154114	
-0.0138855	
-0.0128174	
-0.0114441	
-0.0106812	
-0.00946045	
-0.00869751	
-0.00701904	
-0.0062561	
-0.00442505	
-0.00335693	
-0.00167847	
-0.000915527	
0.000152588	
0.000610352	
0.00152588	
0.00259399	
0.00335693	
0.00366211	
0.00305176	
0.0038147	
0.00518799	
0.00579834	
0.00549316	
0.00579834	
0.00564575	
0.00579834	
0.00579834	
0.00564575	
0.00549316	
0.00549316	
0.00564575	
0.0062561	
0.00778198	
0.00808716	
0.00854492	
0.0100708	
0.0109863	
0.01297	
0.014801	
0.0158691	
0.0178528	
0.0204468	
0.0227356	
0.025177	
0.027771	
0.030365	
0.0325012	
0.0331116	
0.0349426	
0.0375366	
0.0398254	
0.0416565	
0.0436401	
0.0450134	
0.0468445	
0.0488281	
0.0497437	
0.0514221	
0.0526428	
0.0534058	
0.0543213	
0.0546265	
0.0563049	
0.0570679	
0.0587463	
0.0596619	
0.0616455	
0.0639343	
0.0646973	
0.0663757	
0.0691223	
0.0708008	
0.0720215	
0.0738525	
0.0765991	
0.0791931	
0.0805664	
0.0816345	
0.0837708	
0.0860596	
0.0880432	
0.0886536	
0.0904846	
0.0920105	
0.092926	
0.0938416	
0.0952148	
0.0961304	
0.0978088	
0.0984192	
0.0990295	
0.100403	
0.100708	
0.100708	
0.101318	
0.102386	
0.102844	
0.103607	
0.104675	
0.105743	
0.106812	
0.108032	
0.108185	
0.109863	
0.110931	
0.112457	
0.113678	
0.114899	
0.115814	
0.11734	
0.118408	
0.120087	
0.120392	
0.121307	
0.122223	
0.122986	
0.122833	
0.123138	
0.124359	
0.125427	
0.125275	
0.125885	
0.125122	
0.125427	
0.125275	
0.125275	
0.125732	
0.127258	
0.127869	
0.128174	
0.128479	
0.129852	
0.13092	
0.132294	
0.132904	
0.133209	
0.134277	
0.135651	
0.136871	
0.137787	
0.137939	
0.139618	
0.140076	
0.140533	
0.141907	
0.14267	
0.142517	
0.14267	
0.142365	
0.143127	
0.144501	
0.145416	
0.144958	
0.144958	
0.144806	
0.144653	
0.142975	
0.142517	
0.142822	
0.142059	
0.140533	
0.139771	
0.138092	
0.137482	
0.13504	
0.132446	
0.129852	
0.127869	
0.125275	
0.122833	
0.120544	
0.117645	
0.113678	
0.110779	
0.108337	
0.105743	
0.102844	
0.0987244	
0.096283	
0.092926	
0.0892639	
0.0862122	
0.0828552	
0.0796509	
0.0758362	
0.0720215	
0.0692749	
0.0660706	
0.0619507	
0.0587463	
0.0547791	
0.0514221	
0.0474548	
0.0440979	
0.0404358	
0.0375366	
0.0331116	
0.0299072	
0.0256348	
0.0221252	
0.0184631	
0.0149536	
0.0112915	
0.00778198	
0.00427246	
0.000762939	
-0.00320435	
-0.00671387	
-0.010376	
-0.0146484	
-0.0183105	
-0.0215149	
-0.0254822	
-0.0286865	
-0.0328064	
-0.0361633	
-0.0401306	
-0.045166	
-0.0480652	
-0.0509644	
-0.0550842	
-0.0582886	
-0.0621033	
-0.0653076	
-0.0680542	
-0.0720215	
-0.0750732	
-0.0775146	
-0.0799561	
-0.0822449	
-0.0846863	
-0.0869751	
-0.0894165	
-0.0921631	
-0.0941467	
-0.0970459	
-0.0991821	
-0.101776	
-0.104218	
-0.106964	
-0.109253	
-0.112	
-0.115967	
-0.118866	
-0.12207	
-0.125885	
-0.128632	
-0.131226	
-0.133667	
-0.138092	
-0.140991	
-0.143433	
-0.146027	
-0.148621	
-0.151215	
-0.153351	
-0.155792	
-0.157928	
-0.160675	
-0.162354	
-0.163422	
-0.165405	
-0.167236	
-0.16861	
-0.170135	
-0.171051	
-0.171967	
-0.173187	
-0.174713	
-0.175781	
-0.17746	
-0.178223	
-0.179596	
-0.180664	
-0.182343	
-0.182648	
-0.183411	
-0.184937	
-0.184937	
-0.185242	
-0.184937	
-0.185242	
-0.185242	
-0.185242	
-0.185089	
-0.185394	
-0.185547	
-0.185242	
-0.185089	
-0.185089	
-0.185089	
-0.185547	
-0.184937	
-0.185089	
-0.184479	
-0.183563	
-0.183105	
-0.1828	
-0.183105	
-0.1828	
-0.1828	
-0.182953	
-0.182495	
-0.182648	
-0.1828	
-0.182953	
-0.183105	
-0.182953	
-0.182953	
-0.1828	
-0.182648	
-0.182953	
-0.182953	
-0.182953	
-0.18219	
-0.181122	
-0.180511	
-0.180206	
-0.180511	
-0.179749	
-0.178223	
-0.177917	
-0.177155	
-0.175781	
-0.175323	
-0.174866	
-0.173645	
-0.172882	
-0.173035	
-0.172882	
-0.172424	
-0.170746	
-0.170441	
-0.170135	
-0.168762	
-0.168152	
-0.167542	
-0.166016	
-0.16571	
-0.165253	
-0.163727	
-0.163422	
-0.162506	
-0.16098	
-0.159912	
-0.158691	
-0.158386	
-0.157471	
-0.156097	
-0.155792	
-0.155792	
-0.155182	
-0.153809	
-0.153809	
-0.153351	
-0.153351	
-0.153351	
-0.153503	
-0.153198	
-0.153656	
-0.152893	
-0.151825	
-0.150909	
-0.150909	
-0.150299	
-0.148926	
-0.14801	
-0.146942	
-0.145416	
-0.14328	
-0.141907	
-0.140686	
-0.13916	
-0.138092	
-0.136261	
-0.134583	
-0.133209	
-0.131683	
-0.13092	
-0.129547	
-0.128326	
-0.127106	
-0.126495	
-0.126801	
-0.125885	
-0.124512	
-0.123291	
-0.123901	
-0.123596	
-0.122986	
-0.121918	
-0.12146	
-0.121155	
-0.119934	
-0.119019	
-0.119019	
-0.118408	
-0.117188	
-0.11673	
-0.115967	
-0.114746	
-0.114136	
-0.113525	
-0.112305	
-0.111694	
-0.111389	
-0.109863	
-0.108948	
-0.107574	
-0.106354	
-0.10498	
-0.103912	
-0.102539	
-0.102081	
-0.101318	
-0.0999451	
-0.0990295	
-0.0973511	
-0.0970459	
-0.0965881	
-0.0952148	
-0.0946045	
-0.0939941	
-0.092926	
-0.0924683	
-0.0921631	
-0.0921631	
-0.0920105	
-0.0920105	
-0.0918579	
-0.0912476	
-0.0900269	
-0.0894165	
-0.0895691	
-0.0895691	
-0.0894165	
-0.0895691	
-0.0894165	
-0.0898743	
-0.0898743	
-0.0895691	
-0.0898743	
-0.0894165	
-0.0874329	
-0.0869751	
-0.0865173	
-0.0854492	
-0.0840759	
-0.0828552	
-0.0816345	
-0.0802612	
-0.0794983	
-0.0778198	
-0.0772095	
-0.0750732	
-0.0730896	
-0.0718689	
-0.0708008	
-0.0700378	
-0.0680542	
-0.067749	
-0.0671387	
-0.0657654	
-0.0657654	
-0.0654602	
-0.065155	
-0.0654602	
-0.065155	
-0.0650024	
-0.0654602	
-0.0653076	
-0.0646973	
-0.0654602	
-0.0653076	
-0.0650024	
-0.0653076	
-0.0653076	
-0.0653076	
-0.0654602	
-0.0653076	
-0.0653076	
-0.0654602	
-0.0653076	
-0.0654602	
-0.0653076	
-0.0653076	
-0.0653076	
-0.0645447	
-0.0631714	
-0.0627136	
-0.062561	
-0.0621033	
-0.06073	
-0.059967	
-0.0584412	
-0.0576782	
-0.057373	
-0.0561523	
-0.0552368	
-0.0540161	
-0.0524902	
-0.0509644	
-0.0500488	
-0.0486755	
-0.0480652	
-0.0474548	
-0.045929	
-0.0454712	
-0.0450134	
-0.0436401	
-0.0434875	
-0.0430298	
-0.043335	
-0.0437927	
-0.0450134	
-0.0454712	
-0.0456238	
-0.045166	
-0.045166	
-0.0454712	
-0.0456238	
-0.045929	
-0.0454712	
-0.0456238	
-0.0457764	
-0.0454712	
-0.045166	
-0.0457764	
-0.0456238	
-0.0456238	
-0.0457764	
-0.0454712	
-0.043335	
-0.0431824	
-0.043335	
-0.0430298	
-0.0431824	
-0.0430298	
-0.043335	
-0.0431824	
-0.0434875	
-0.0430298	
-0.0431824	
-0.043335	
-0.0430298	
-0.043335	
-0.0428772	
-0.0428772	
-0.0431824	
-0.0430298	
-0.0427246	
-0.0431824	
-0.043335	
-0.0434875	
-0.0428772	
-0.0434875	
-0.0431824	
-0.0431824	
-0.0430298	
-0.0428772	
-0.0430298	
-0.0430298	
-0.0436401	
-0.0427246	
-0.0411987	
-0.0408936	
-0.0408936	
-0.0408936	
-0.0401306	
-0.0389099	
-0.038147	
-0.0378418	
-0.0366211	
-0.035553	
-0.0358582	
-0.0357056	
-0.0358582	
-0.0357056	
-0.0350952	
-0.0337219	
-0.0334167	
-0.0335693	
-0.032959	
-0.0334167	
-0.0328064	
-0.0318909	
-0.0311279	
-0.0311279	
-0.0308228	
-0.0306702	
-0.0306702	
-0.0308228	
-0.0314331	
-0.0331116	
-0.0332642	
-0.0331116	
-0.0334167	
-0.0332642	
-0.0334167	
-0.0332642	
-0.0332642	
-0.0334167	
-0.0331116	
-0.0334167	
-0.0350952	
-0.0358582	
-0.0358582	
-0.035553	
-0.0363159	
-0.037384	
-0.0382996	
-0.0382996	
-0.038147	
-0.0386047	
-0.0384521	
-0.038147	
-0.0386047	
-0.0378418	
-0.0382996	
-0.0382996	
-0.0382996	
-0.0379944	
-0.037384	
-0.0363159	
-0.0357056	
-0.0361633	
-0.0363159	
-0.0358582	
-0.0357056	
-0.0361633	
-0.035553	
-0.0361633	
-0.035553	
-0.0364685	
-0.0376892	
-0.038147	
-0.0382996	
-0.0382996	
-0.0384521	
-0.0384521	
-0.0382996	
-0.0386047	
-0.0379944	
-0.0384521	
-0.0384521	
-0.037384	
-0.0364685	
-0.0358582	
-0.0360107	
-0.0357056	
-0.0357056	
-0.035553	
-0.0340271	
-0.032959	
-0.0335693	
-0.0334167	
-0.0334167	
-0.0340271	
-0.0349426	
-0.035553	
-0.0360107	
-0.0360107	
-0.0358582	
-0.0360107	
-0.0358582	
-0.0357056	
-0.0358582	
-0.0357056	
-0.0357056	
-0.0357056	
-0.0357056	
-0.0360107	
-0.0357056	
-0.0357056	
-0.0358582	
-0.0354004	
-0.0354004	
-0.0340271	
-0.0328064	
-0.0317383	
-0.0305176	
-0.0292969	
-0.0279236	
-0.0267029	
-0.0254822	
-0.0244141	
-0.0234985	
-0.0228882	
-0.0215149	
-0.0210571	
-0.0212097	
-0.0216675	
-0.0209045	
-0.020752	
-0.0212097	
-0.0213623	
-0.0213623	
-0.0212097	
-0.0213623	
-0.0212097	
-0.0218201	
-0.0231934	
-0.0231934	
-0.0231934	
-0.0236511	
-0.0241089	
-0.0256348	
-0.0259399	
-0.0260925	
-0.0259399	
-0.0257874	
-0.0260925	
-0.0259399	
-0.0267029	
-0.027771	
-0.0285339	
-0.0285339	
-0.0283813	
-0.0285339	
-0.0279236	
-0.0283813	
-0.0286865	
-0.0285339	
-0.0283813	
-0.0285339	
-0.0286865	
-0.0286865	
-0.0285339	
-0.0285339	
-0.0282288	
-0.0286865	
-0.0283813	
-0.0285339	
-0.0286865	
-0.0288391	
-0.0282288	
-0.0265503	
-0.0260925	
-0.0259399	
-0.0260925	
-0.0259399	
-0.0256348	
-0.0239563	
-0.0238037	
-0.0236511	
-0.0234985	
-0.0234985	
-0.0233459	
-0.0233459	
-0.0234985	
-0.0238037	
-0.0233459	
-0.0236511	
-0.0231934	
-0.0234985	
-0.0236511	
-0.0236511	
-0.0234985	
-0.0233459	
-0.0234985	
-0.0234985	
-0.0234985	
-0.0230408	
-0.0215149	
-0.0212097	
-0.0210571	
-0.0209045	
-0.0210571	
-0.0209045	
-0.0210571	
-0.0209045	
-0.0205994	
-0.0204468	
-0.0190735	
-0.0187683	
-0.0186157	
-0.018158	
-0.0169373	
-0.0158691	
-0.0143433	
-0.0132751	
-0.0119019	
-0.0109863	
-0.00946045	
-0.00915527	
-0.00823975	
-0.00717163	
-0.00656128	
-0.0062561	
-0.00656128	
-0.00671387	
-0.0062561	
-0.0062561	
-0.00701904	
-0.00854492	
-0.00869751	
-0.00961304	
-0.0105286	
-0.0112915	
-0.0111389	
-0.0115967	
-0.0132751	
-0.0140381	
-0.0134277	
-0.0135803	
-0.0144958	
-0.0157166	
-0.0161743	
-0.0164795	
-0.0164795	
-0.0163269	
-0.0163269	
-0.0154114	
-0.0144958	
-0.0134277	
-0.0138855	
-0.0135803	
-0.0131226	
-0.0115967	
-0.0112915	
-0.0108337	
-0.00946045	
-0.0088501	
-0.00823975	
-0.00732422	
-0.00640869	
-0.00640869	
-0.00640869	
-0.0062561	
-0.00564575	
-0.00442505	
-0.00473022	
-0.00564575	
-0.0062561	
-0.00640869	
-0.0062561	
-0.00640869	
-0.00595093	
-0.00686646	
-0.00839233	
-0.00869751	
-0.00869751	
-0.00915527	
-0.00915527	
-0.0088501	
-0.00900269	
-0.0088501	
-0.00869751	
-0.00900269	
-0.00900269	
-0.0088501	
-0.00915527	
-0.0088501	
-0.0088501	
-0.00915527	
-0.00869751	
-0.00869751	
-0.0088501	
-0.00854492	
-0.00869751	
-0.0088501	
-0.0088501	
-0.00915527	
-0.00823975	
-0.00671387	
-0.00656128	
-0.0062561	
-0.00640869	
-0.00656128	
-0.00595093	
-0.00427246	
-0.00396729	
-0.00411987	
-0.00320435	
-0.00167847	
-0.00152588	
-0.0012207	
-0.00152588	
-0.000915527	
0.000305176	
0.00106812	
0.00106812	
0.000610352	
0.00106812	
0.000915527	
0.000610352	
0.00106812	
0.0012207	
0.000762939	
0.000915527	
0.000457764	
-0.0012207	
-0.00167847	
-0.00152588	
-0.00167847	
-0.00167847	
-0.00152588	
-0.00213623	
-0.00335693	
-0.00366211	
-0.00411987	
-0.00396729	
-0.00396729	
-0.00366211	
-0.00411987	
-0.00335693	
-0.00228882	
-0.00152588	
-0.00167847	
-0.00167847	
-0.0012207	
-0.00198364	
-0.00106812	
0.000457764	
0.00106812	
0.000762939	
0.000457764	
0.00106812	
0.000915527	
0.00106812	
0.000762939	
0.00106812	
0.000610352	
0.0012207	
0.0012207	
0.00106812	
0.000457764	
0.000610352	
0.000762939	
0.00106812	
0.00137329	
0.00289917	
0.00320435	
0.00335693	
0.00366211	
0.00320435	
0.00350952	
0.00366211	
0.00488281	
0.00564575	
0.00579834	
0.00610352	
0.00610352	
0.00656128	
0.00778198	
0.00869751	
0.00854492	
0.00823975	
0.00854492	
0.00823975	
0.00808716	
0.00808716	
0.00640869	
0.00610352	
0.00549316	
0.0062561	
0.00564575	
0.00518799	
0.00396729	
0.00320435	
0.00305176	
0.00335693	
0.00350952	
0.00335693	
0.00350952	
0.00335693	
0.00335693	
0.00335693	
0.00335693	
0.00320435	
0.00335693	
0.00320435	
0.00411987	
0.00518799	
0.00579834	
0.00579834	
0.00564575	
0.00579834	
0.00640869	
0.00778198	
0.00778198	
0.00778198	
0.00808716	
0.00808716	
0.00808716	
0.00823975	
0.00839233	
0.00869751	
0.00839233	
0.00839233	
0.00839233	
0.00823975	
0.00808716	
0.00793457	
0.00854492	
0.00823975	
0.00823975	
0.00823975	
0.00823975	
0.00823975	
0.00854492	
0.00823975	
0.00839233	
0.010376	
0.0105286	
0.0112915	
0.0106812	
0.0106812	
0.0109863	
0.0106812	
0.0105286	
0.0106812	
0.0105286	
0.0106812	
0.0106812	
0.0108337	
0.0108337	
0.0105286	
0.0105286	
0.0106812	
0.0106812	
0.0114441	
0.0123596	
0.0131226	
0.01297	
0.0134277	
0.01297	
0.0126648	
0.0112915	
0.0108337	
0.0106812	
0.0106812	
0.0102234	
0.00900269	
0.00793457	
0.00793457	
0.00778198	
0.00823975	
0.00808716	
0.00808716	
0.00808716	
0.0088501	
0.0102234	
0.0108337	
0.0112915	
0.0123596	
0.0134277	
0.0149536	
0.0161743	
0.017395	
0.0180054	
0.0186157	
0.0198364	
0.0202942	
0.0204468	
0.0202942	
0.0205994	
0.019989	
0.0184631	
0.018158	
0.018158	
0.0175476	
0.0157166	
0.0157166	
0.0157166	
0.0154114	
0.0152588	
0.0152588	
0.015564	
0.0149536	
0.0134277	
0.0132751	
0.0132751	
0.0132751	
0.0131226	
0.01297	
0.0128174	
0.0131226	
0.01297	
0.01297	
0.0131226	
0.0131226	
0.01297	
0.0131226	
0.01297	
0.0131226	
0.0132751	
0.01297	
0.0132751	
0.0132751	
0.0128174	
0.0123596	
0.01297	
0.01297	
0.0131226	
0.0131226	
0.0131226	
0.0131226	
0.0128174	
0.0134277	
0.0149536	
0.0154114	
0.0157166	
0.0158691	
0.015564	
0.0158691	
0.0178528	
0.0178528	
0.0177002	
0.018158	
0.018158	
0.0198364	
0.0201416	
0.0202942	
0.0204468	
0.0202942	
0.0205994	
0.020752	
0.0204468	
0.0202942	
0.020752	
0.0222778	
0.0227356	
0.0228882	
0.0230408	
0.0230408	
0.0228882	
0.0230408	
0.0228882	
0.0228882	
0.0227356	
0.0228882	
0.0230408	
0.0228882	
0.0230408	
0.0228882	
0.0230408	
0.0233459	
0.0228882	
0.0230408	
0.0227356	
0.0230408	
0.0230408	
0.0219727	
0.0212097	
0.020752	
0.0204468	
0.0204468	
0.0205994	
0.0204468	
0.0212097	
0.0221252	
0.0228882	
0.0228882	
0.0231934	
0.0234985	
0.0245667	
0.0259399	
0.0279236	
0.0305176	
0.0323486	
0.0332642	
0.0350952	
0.037384	
0.039978	
0.0415039	
0.0445557	
0.0468445	
0.0492859	
0.0517273	
0.0543213	
0.0563049	
0.0575256	
0.0587463	
0.0596619	
0.0588989	
0.0595093	
0.0595093	
0.0590515	
0.0575256	
0.0559998	
0.0546265	
0.0515747	
0.0492859	
0.0471497	
0.0448608	
0.0415039	
0.0379944	
0.0352478	
0.0328064	
0.0300598	
0.0259399	
0.0231934	
0.0202942	
0.0177002	
0.015564	
0.0128174	
0.0105286	
0.00869751	
0.00762939	
0.00671387	
0.00534058	
0.00396729	
0.00366211	
0.00350952	
0.00320435	
0.00305176	
0.00289917	
0.00366211	
0.00518799	
0.00579834	
0.00564575	
0.00640869	
0.00778198	
0.0088501	
0.0100708	
0.010376	
0.0112915	
0.0128174	
0.0135803	
0.0157166	
0.0175476	
0.0184631	
0.0204468	
0.0222778	
0.0233459	
0.0257874	
0.0276184	
0.030365	
0.0320435	
0.0331116	
0.0346375	
0.0352478	
0.0369263	
0.038147	
0.0392151	
0.0398254	
0.0401306	
0.0402832	
0.0413513	
0.0424194	
0.0422668	
0.042572	
0.0436401	
0.0447083	
0.0447083	
0.0463867	
0.0471497	
0.0485229	
0.0498962	
0.0514221	
0.0524902	
0.0537109	
0.0547791	
0.0564575	
0.0570679	
0.0592041	
0.0608826	
0.0617981	
0.0622559	
0.0634766	
0.0637817	
0.0640869	
0.0642395	
0.0639343	
0.0642395	
0.063324	
0.0622559	
0.0611877	
0.059967	
0.0588989	
0.0567627	
0.0550842	
0.0538635	
0.0517273	
0.0492859	
0.04776	
0.0460815	
0.0444031	
0.0418091	
0.0398254	
0.0375366	
0.035553	
0.0332642	
0.032196	
0.0300598	
0.0280762	
0.0256348	
0.0233459	
0.022583	
0.0202942	
0.0186157	
0.017395	
0.0161743	
0.0151062	
0.0134277	
0.0128174	
0.0111389	
0.0106812	
0.0102234	
0.0088501	
0.00808716	
0.00732422	
0.00656128	
0.00579834	
0.00518799	
0.00366211	
0.00320435	
0.00259399	
0.00106812	
0.000457764	
-0.00137329	
-0.00152588	
-0.00137329	
-0.00152588	
-0.00198364	
-0.00350952	
-0.00396729	
-0.00427246	
-0.00427246	
-0.00411987	
-0.00427246	
-0.00457764	
-0.00595093	
-0.00656128	
-0.0062561	
-0.00686646	
-0.00793457	
-0.00839233	
-0.00900269	
-0.0088501	
-0.00900269	
-0.00839233	
-0.00915527	
-0.0088501	
-0.0088501	
-0.00854492	
-0.00854492	
-0.0088501	
-0.0088501	
-0.00869751	
-0.0088501	
-0.00915527	
-0.0088501	
-0.0088501	
-0.0088501	
-0.00854492	
-0.00900269	
-0.0088501	
-0.0088501	
-0.00839233	
-0.00671387	
-0.00640869	
-0.0062561	
-0.00656128	
-0.00610352	
-0.00640869	
-0.00579834	
-0.00457764	
-0.00411987	
-0.00396729	
-0.0038147	
-0.00320435	
-0.00244141	
-0.00183105	
-0.00152588	
-0.0012207	
0.000305176	
0.00106812	
0.00106812	
0.00106812	
0.00152588	
0.00274658	
0.00320435	
0.00305176	
0.00427246	
0.00518799	
0.00549316	
0.00564575	
0.00564575	
0.00595093	
0.0062561	
0.00808716	
0.00808716	
0.00823975	
0.00823975	
0.00793457	
0.00793457	
0.00793457	
0.00839233	
0.00808716	
0.00823975	
0.00839233	
0.00793457	
0.00869751	
0.010376	
0.0106812	
0.0108337	
0.00991821	
0.00900269	
0.00823975	
0.00823975	
0.00839233	
0.00793457	
0.00747681	
0.00610352	
0.00564575	
0.00579834	
0.0050354	
0.0038147	
0.00305176	
0.00259399	
0.00152588	
0.000610352	
0.000915527	
0.000305176	
-0.00137329	
-0.00137329	
-0.00152588	
-0.00183105	
-0.00137329	
0	
0.000457764	
0.00106812	
0.0012207	
0.00305176	
0.0038147	
0.00549316	
0.00610352	
0.00762939	
0.00854492	
0.0100708	
0.0111389	
0.0131226	
0.0149536	
0.0160217	
0.0170898	
0.0184631	
0.0196838	
0.020752	
0.0227356	
0.0253296	
0.0280762	
0.0300598	
0.0326538	
0.035553	
0.0398254	
0.0448608	
0.0494385	
0.0566101	
0.0645447	
0.0737	
0.0848389	
0.0984192	
0.114136	
0.132904	
0.153351	
0.176239	
0.201721	
0.230713	
0.262299	
0.297241	
0.335388	
0.375519	
0.418396	
0.463409	
0.509796	
0.558472	
0.609436	
0.660706	
0.712891	
0.765991	
0.819702	
0.873718	
0.927734	
0.981293	
1.03516	
1.08673	
1.13602	
1.18469	
1.23184	
1.27686	
1.31836	
1.35559	
1.39053	
1.4209	
1.44669	
1.46835	
1.48575	
1.49796	
1.50574	
1.51016	
1.51047	
1.5062	
1.49811	
1.48682	
1.47202	
1.45432	
1.4325	
1.40671	
1.37787	
1.34491	
1.30844	
1.26877	
1.22421	
1.17676	
1.12732	
1.07376	
1.01822	
0.961151	
0.9021	
0.841675	
0.780334	
0.718536	
0.655212	
0.591888	
0.528107	
0.464325	
0.400848	
0.336914	
0.273895	
0.21286	
0.153198	
0.0956726	
0.0405884	
-0.0117493	
-0.0613403	
-0.10788	
-0.15213	
-0.193787	
-0.232391	
-0.267029	
-0.299377	
-0.328827	
-0.35614	
-0.379944	
-0.402374	
-0.421753	
-0.439148	
-0.453796	
-0.465851	
-0.475769	
-0.483093	
-0.488892	
-0.492859	
-0.496674	
-0.498352	
-0.498505	
-0.496216	
-0.493164	
-0.489655	
-0.485382	
-0.479736	
-0.474091	
-0.467377	
-0.461426	
-0.454712	
-0.447693	
-0.440216	
-0.431976	
-0.423431	
-0.415802	
-0.408173	
-0.401001	
-0.393677	
-0.385895	
-0.376892	
-0.369568	
-0.361633	
-0.354309	
-0.347137	
-0.339355	
-0.332336	
-0.325623	
-0.319519	
-0.312653	
-0.305939	
-0.299988	
-0.293427	
-0.288544	
-0.283051	
-0.27832	
-0.273438	
-0.270081	
-0.266571	
-0.263824	
-0.261078	
-0.258636	
-0.256348	
-0.253906	
-0.251465	
-0.248871	
-0.246429	
-0.243835	
-0.24231	
-0.240936	
-0.239105	
-0.236664	
-0.234833	
-0.233917	
-0.231781	
-0.229187	
-0.227203	
-0.224304	
-0.22171	
-0.219727	
-0.218658	
-0.216827	
-0.214996	
-0.21225	
-0.210114	
-0.209351	
-0.207977	
-0.206757	
-0.205536	
-0.204163	
-0.203094	
-0.202789	
-0.202637	
-0.201721	
-0.200348	
-0.200195	
-0.200043	
-0.199585	
-0.19928	
-0.198059	
-0.197296	
-0.197144	
-0.196838	
-0.195465	
-0.19455	
-0.193329	
-0.192871	
-0.192108	
-0.190887	
-0.189362	
-0.187683	
-0.185852	
-0.184784	
-0.182648	
-0.180817	
-0.179596	
-0.177917	
-0.175323	
-0.172729	
-0.170593	
-0.168457	
-0.167542	
-0.165405	
-0.163879	
-0.162506	
-0.161438	
-0.16098	
-0.160522	
-0.160675	
-0.160065	
-0.158539	
-0.158081	
-0.158234	
-0.158386	
-0.158386	
-0.158081	
-0.158234	
-0.157776	
-0.156097	
-0.15625	
-0.155945	
-0.15564	
-0.155792	
-0.155182	
-0.153809	
-0.153046	
-0.153198	
-0.153503	
-0.153046	
-0.151062	
-0.150909	
-0.150452	
-0.149384	
-0.14801	
-0.146332	
-0.145416	
-0.14389	
-0.142822	
-0.141602	
-0.140686	
-0.139008	
-0.137177	
-0.135956	
-0.13443	
-0.133209	
-0.131989	
-0.13092	
-0.1297	
-0.128937	
-0.128326	
-0.127258	
-0.126343	
-0.12619	
-0.125732	
-0.124359	
-0.124054	
-0.123901	
-0.124207	
-0.124054	
-0.124207	
-0.123749	
-0.123291	
-0.122223	
-0.121613	
-0.121155	
-0.121155	
-0.121002	
-0.119171	
-0.119019	
-0.119171	
-0.118713	
-0.116882	
-0.11673	
-0.115967	
-0.114746	
-0.113983	
-0.113678	
-0.111694	
-0.111542	
-0.111694	
-0.111084	
-0.110016	
-0.109253	
-0.109558	
-0.1091	
-0.107422	
-0.106354	
-0.10498	
-0.104675	
-0.104065	
-0.101776	
-0.100555	
-0.0987244	
-0.0976563	
-0.0964355	
-0.0950623	
-0.0938416	
-0.0920105	
-0.0920105	
-0.0917053	
-0.090332	
-0.0898743	
-0.0898743	
-0.0897217	
-0.0895691	
-0.0895691	
-0.0895691	
-0.0888062	
-0.0874329	
-0.0872803	
-0.0872803	
-0.0871277	
-0.0869751	
-0.0872803	
-0.0871277	
-0.0868225	
-0.0872803	
-0.0869751	
-0.0868225	
-0.085144	
-0.0848389	
-0.0848389	
-0.0848389	
-0.0842285	
-0.0831604	
-0.0820923	
-0.0814819	
-0.0801086	
-0.0791931	
-0.078125	
-0.0769043	
-0.0752258	
-0.0733948	
-0.0723267	
-0.0708008	
-0.0695801	
-0.0682068	
-0.0671387	
-0.0654602	
-0.0646973	
-0.063324	
-0.0630188	
-0.0628662	
-0.0621033	
-0.06073	
-0.0604248	
-0.0604248	
-0.0602722	
-0.0604248	
-0.0604248	
-0.0604248	
-0.0596619	
-0.0582886	
-0.0578308	
-0.0579834	
-0.0579834	
-0.0578308	
-0.058136	
-0.0576782	
-0.0578308	
-0.0570679	
-0.0559998	
-0.0556946	
-0.0549316	
-0.0535583	
-0.0524902	
-0.0508118	
-0.0500488	
-0.0483704	
-0.0474548	
-0.0456238	
-0.0450134	
-0.0439453	
-0.0427246	
-0.0411987	
-0.0408936	
-0.0404358	
-0.0390625	
-0.0384521	
-0.038147	
-0.0376892	
-0.0379944	
-0.0364685	
-0.035553	
-0.0350952	
-0.0338745	
-0.0335693	
-0.0332642	
-0.0314331	
-0.0306702	
-0.0289917	
-0.0286865	
-0.0279236	
-0.0265503	
-0.0253296	
-0.0238037	
-0.0233459	
-0.0231934	
-0.0213623	
-0.0215149	
-0.0204468	
-0.0192261	
-0.0186157	
-0.0186157	
-0.0183105	
-0.0167847	
-0.0161743	
-0.015564	
-0.0143433	
-0.0135803	
-0.01297	
-0.0117493	
-0.0112915	
-0.0105286	
-0.00946045	
-0.0088501	
-0.00793457	
-0.00701904	
-0.00579834	
-0.00457764	
-0.00335693	
-0.00198364	
-0.000915527	
0.000915527	
0.00259399	
0.00366211	
0.0050354	
0.00610352	
0.00762939	
0.00778198	
0.00839233	
0.00976563	
0.0105286	
0.0111389	
0.0125122	
0.0131226	
0.0135803	
0.0152588	
0.015564	
0.0163269	
0.0172424	
0.0186157	
0.0198364	
0.0209045	
0.0221252	
0.0233459	
0.0245667	
0.0250244	
0.0257874	
0.0271606	
0.0279236	
0.0294495	
0.0305176	
0.032196	
0.032959	
0.0346375	
0.035553	
0.0372314	
0.0379944	
0.0393677	
0.0401306	
0.0415039	
0.0418091	
0.0430298	
0.0439453	
0.0450134	
0.0462341	
0.04776	
0.0494385	
0.0512695	
0.0523376	
0.0538635	
0.0546265	
0.0570679	
0.0588989	
0.0593567	
0.0610352	
0.0621033	
0.0640869	
0.0663757	
0.0672913	
0.0691223	
0.0712585	
0.0718689	
0.0743103	
0.0761414	
0.0782776	
0.0793457	
0.0813293	
0.0836182	
0.0856018	
0.0868225	
0.0878906	
0.0891113	
0.0907898	
0.0930786	
0.0938416	
0.0952148	
0.0967407	
0.0976563	
0.098114	
0.0987244	
0.100098	
0.100708	
0.101318	
0.102844	
0.103607	
0.104828	
0.105438	
0.106812	
0.107727	
0.108948	
0.110016	
0.111084	
0.11261	
0.113525	
0.114746	
0.116272	
0.11734	
0.118561	
0.119629	
0.120392	
0.121002	
0.122833	
0.122833	
0.122986	
0.123444	
0.124969	
0.124969	
0.125885	
0.127106	
0.128174	
0.129852	
0.129852	
0.130615	
0.131989	
0.132599	
0.132599	
0.133209	
0.134735	
0.135193	
0.13504	
0.135345	
0.135193	
0.135498	
0.135498	
0.136871	
0.137939	
0.137787	
0.138245	
0.139618	
0.140076	
0.140381	
0.141907	
0.142517	
0.142975	
0.144043	
0.145111	
0.145111	
0.145111	
0.144806	
0.145111	
0.144958	
0.145264	
0.144958	
0.144958	
0.144806	
0.145111	
0.144958	
0.142975	
0.142059	
0.140381	
0.139618	
0.138092	
0.137177	
0.134735	
0.133209	
0.132141	
0.13031	
0.127869	
0.125275	
0.122986	
0.120544	
0.11795	
0.115662	
0.113068	
0.110016	
0.106201	
0.103302	
0.101013	
0.0985718	
0.0961304	
0.0927734	
0.0891113	
0.0865173	
0.0837708	
0.080719	
0.0767517	
0.0733948	
0.0695801	
0.0666809	
0.063324	
0.059967	
0.0559998	
0.0524902	
0.0485229	
0.0450134	
0.0416565	
0.038147	
0.0350952	
0.0312805	
0.0276184	
0.0227356	
0.0184631	
0.0151062	
0.0111389	
0.00793457	
0.00366211	
0.000457764	
-0.00289917	
-0.00610352	
-0.00946045	
-0.0132751	
-0.0163269	
-0.0190735	
-0.0227356	
-0.0257874	
-0.0283813	
-0.0311279	
-0.0352478	
-0.0387573	
-0.0424194	
-0.0456238	
-0.0488281	
-0.0524902	
-0.0552368	
-0.0585938	
-0.0621033	
-0.0657654	
-0.0695801	
-0.0727844	
-0.0759888	
-0.0791931	
-0.08255	
-0.0869751	
-0.0900269	
-0.0921631	
-0.0950623	
-0.098877	
-0.101624	
-0.104065	
-0.106659	
-0.1091	
-0.111847	
-0.113678	
-0.116272	
-0.119171	
-0.121765	
-0.123901	
-0.125885	
-0.126648	
-0.128937	
-0.131226	
-0.134125	
-0.136108	
-0.137939	
-0.139313	
-0.141144	
-0.143127	
-0.145721	
-0.148468	
-0.150757	
-0.153503	
-0.155487	
-0.157776	
-0.160065	
-0.161133	
-0.163269	
-0.165863	
-0.167236	
-0.168457	
-0.169678	
-0.170441	
-0.170898	
-0.172119	
-0.172577	
-0.173798	
-0.175018	
-0.175323	
-0.175323	
-0.175629	
-0.175934	
-0.17746	
-0.177765	
-0.177612	
-0.17746	
-0.177917	
-0.17746	
-0.177612	
-0.177917	
-0.177155	
-0.175934	
-0.175629	
-0.175629	
-0.175171	
-0.175171	
-0.174866	
-0.173645	
-0.172882	
-0.173035	
-0.172882	
-0.172577	
-0.170898	
-0.170593	
-0.170288	
-0.170288	
-0.170441	
-0.170441	
-0.170441	
-0.170288	
-0.170593	
-0.170746	
-0.170593	
-0.170441	
-0.170441	
-0.170593	
-0.170593	
-0.170593	
-0.170288	
-0.170593	
-0.170441	
-0.169983	
-0.168457	
-0.168152	
-0.167847	
-0.166473	
-0.16571	
-0.164948	
-0.163574	
-0.162659	
-0.161285	
-0.16037	
-0.160065	
-0.158844	
-0.158539	
-0.158386	
-0.157928	
-0.156555	
-0.155945	
-0.155334	
-0.153961	
-0.153351	
-0.153198	
-0.152893	
-0.151367	
-0.150604	
-0.149078	
-0.148163	
-0.14679	
-0.146027	
-0.145416	
-0.144043	
-0.142822	
-0.141754	
-0.141449	
-0.141144	
-0.140991	
-0.141144	
-0.141296	
-0.141144	
-0.141296	
-0.141144	
-0.140686	
-0.141449	
-0.140839	
-0.13916	
-0.138855	
-0.138855	
-0.138855	
-0.138092	
-0.137024	
-0.136261	
-0.135803	
-0.133972	
-0.133514	
-0.133362	
-0.131989	
-0.131226	
-0.131073	
-0.1297	
-0.128632	
-0.128632	
-0.128937	
-0.128174	
-0.126801	
-0.126495	
-0.126343	
-0.126038	
-0.12558	
-0.124207	
-0.123901	
-0.123444	
-0.12146	
-0.120544	
-0.119476	
-0.118713	
-0.11673	
-0.115967	
-0.114899	
-0.113831	
-0.112762	
-0.111084	
-0.109711	
-0.108948	
-0.107422	
-0.106354	
-0.104523	
-0.104523	
-0.104523	
-0.104065	
-0.102692	
-0.101929	
-0.102081	
-0.101166	
-0.0999451	
-0.0990295	
-0.0993347	
-0.0993347	
-0.0991821	
-0.098877	
-0.0976563	
-0.0967407	
-0.0964355	
-0.0952148	
-0.0941467	
-0.0927734	
-0.0917053	
-0.0901794	
-0.0894165	
-0.0891113	
-0.0875854	
-0.0869751	
-0.0866699	
-0.085144	
-0.0849915	
-0.0840759	
-0.0827026	
-0.0819397	
-0.0819397	
-0.0804138	
-0.0801086	
-0.0799561	
-0.0790405	
-0.0775146	
-0.0772095	
-0.0765991	
-0.075531	
-0.0752258	
-0.0743103	
-0.0732422	
-0.0720215	
-0.0706482	
-0.0692749	
-0.0682068	
-0.0672913	
-0.0660706	
-0.0643921	
-0.063324	
-0.0622559	
-0.0610352	
-0.059967	
-0.0584412	
-0.0579834	
-0.0576782	
-0.0578308	
-0.0572205	
-0.0563049	
-0.0556946	
-0.0552368	
-0.055542	
-0.055542	
-0.0553894	
-0.0547791	
-0.0532532	
-0.0531006	
-0.0527954	
-0.0531006	
-0.0524902	
-0.0508118	
-0.0505066	
-0.0506592	
-0.0509644	
-0.0506592	
-0.0505066	
-0.050354	
-0.0508118	
-0.0505066	
-0.050354	
-0.0506592	
-0.0508118	
-0.0508118	
-0.0506592	
-0.0508118	
-0.050354	
-0.0508118	
-0.0505066	
-0.0505066	
-0.050354	
-0.0505066	
-0.0505066	
-0.0498962	
-0.0483704	
-0.0483704	
-0.0482178	
-0.0476074	
-0.0460815	
-0.045166	
-0.0456238	
-0.0450134	
-0.0436401	
-0.0431824	
-0.0431824	
-0.043335	
-0.0422668	
-0.0408936	
-0.040741	
-0.040741	
-0.0405884	
-0.0405884	
-0.0405884	
-0.040741	
-0.0410461	
-0.040741	
-0.0405884	
-0.0405884	
-0.0405884	
-0.040741	
-0.0405884	
-0.0405884	
-0.040741	
-0.0408936	
-0.0404358	
-0.0408936	
-0.0404358	
-0.0411987	
-0.0401306	
-0.0389099	
-0.0382996	
-0.0384521	
-0.037384	
-0.0360107	
-0.0357056	
-0.0352478	
-0.0337219	
-0.0331116	
-0.0334167	
-0.0332642	
-0.0334167	
-0.0331116	
-0.0331116	
-0.0332642	
-0.0331116	
-0.0334167	
-0.0332642	
-0.0341797	
-0.0352478	
-0.0358582	
-0.0358582	
-0.035553	
-0.035553	
-0.0364685	
-0.038147	
-0.0384521	
-0.0382996	
-0.0384521	
-0.0386047	
-0.038147	
-0.0382996	
-0.0375366	
-0.0364685	
-0.0357056	
-0.035553	
-0.0358582	
-0.0360107	
-0.0364685	
-0.037384	
-0.0379944	
-0.038147	
-0.0384521	
-0.038147	
-0.038147	
-0.0384521	
-0.0378418	
-0.038147	
-0.0378418	
-0.0382996	
-0.038147	
-0.0382996	
-0.038147	
-0.0384521	
-0.038147	
-0.0376892	
-0.038147	
-0.0375366	
-0.0364685	
-0.0360107	
-0.0357056	
-0.035553	
-0.0360107	
-0.0352478	
-0.0338745	
-0.0335693	
-0.0331116	
-0.0332642	
-0.0332642	
-0.0334167	
-0.0337219	
-0.0326538	
-0.0314331	
-0.0311279	
-0.0311279	
-0.0308228	
-0.0305176	
-0.0309753	
-0.0309753	
-0.0309753	
-0.0309753	
-0.0309753	
-0.0309753	
-0.0312805	
-0.0311279	
-0.0309753	
-0.0311279	
-0.0308228	
-0.0306702	
-0.0308228	
-0.0305176	
-0.0308228	
-0.0308228	
-0.0309753	
-0.0311279	
-0.0309753	
-0.0308228	
-0.0308228	
-0.0311279	
-0.0309753	
-0.0309753	
-0.030365	
-0.0288391	
-0.0283813	
-0.0279236	
-0.0283813	
-0.027771	
-0.0265503	
-0.0260925	
-0.0257874	
-0.0263977	
-0.0257874	
-0.0262451	
-0.0262451	
-0.0259399	
-0.0263977	
-0.0259399	
-0.0265503	
-0.027771	
-0.0285339	
-0.0285339	
-0.0282288	
-0.0289917	
-0.0306702	
-0.0309753	
-0.0314331	
-0.0306702	
-0.0311279	
-0.0309753	
-0.0309753	
-0.0312805	
-0.0306702	
-0.0306702	
-0.0306702	
-0.0309753	
-0.0305176	
-0.0289917	
-0.0289917	
-0.0285339	
-0.0286865	
-0.0286865	
-0.0286865	
-0.0282288	
-0.0285339	
-0.0286865	
-0.0288391	
-0.0285339	
-0.0285339	
-0.0283813	
-0.0282288	
-0.0283813	
-0.0286865	
-0.0282288	
-0.0282288	
-0.0286865	
-0.0282288	
-0.0282288	
-0.0285339	
-0.0285339	
-0.0282288	
-0.0283813	
-0.0282288	
-0.0282288	
-0.0283813	
-0.0279236	
-0.0262451	
-0.0259399	
-0.0257874	
-0.0253296	
-0.0242615	
-0.0236511	
-0.0228882	
-0.0216675	
-0.020752	
-0.0201416	
-0.0190735	
-0.0184631	
-0.0183105	
-0.0167847	
-0.0164795	
-0.0164795	
-0.0161743	
-0.0164795	
-0.0164795	
-0.0161743	
-0.0164795	
-0.0160217	
-0.0166321	
-0.018158	
-0.0184631	
-0.0187683	
-0.0184631	
-0.0184631	
-0.0186157	
-0.0183105	
-0.0183105	
-0.0186157	
-0.0186157	
-0.0189209	
-0.0205994	
-0.0209045	
-0.0212097	
-0.0205994	
-0.0210571	
-0.0209045	
-0.0212097	
-0.0213623	
-0.0209045	
-0.0209045	
-0.0205994	
-0.0212097	
-0.020752	
-0.0209045	
-0.020752	
-0.0202942	
-0.0193787	
-0.0183105	
-0.0180054	
-0.0169373	
-0.0163269	
-0.0166321	
-0.0160217	
-0.0160217	
-0.0161743	
-0.0164795	
-0.0158691	
-0.0160217	
-0.0158691	
-0.0164795	
-0.0161743	
-0.0160217	
-0.0161743	
-0.0167847	
-0.0183105	
-0.0187683	
-0.0187683	
-0.0186157	
-0.0186157	
-0.0183105	
-0.0187683	
-0.0187683	
-0.0186157	
-0.0183105	
-0.0166321	
-0.0160217	
-0.0161743	
-0.0160217	
-0.0166321	
-0.0163269	
-0.0154114	
-0.0141907	
-0.0138855	
-0.0137329	
-0.0131226	
-0.0119019	
-0.0112915	
-0.0111389	
-0.010376	
-0.00946045	
-0.00900269	
-0.00839233	
-0.00869751	
-0.00808716	
-0.00671387	
-0.00656128	
-0.0062561	
-0.0062561	
-0.00656128	
-0.00656128	
-0.00640869	
-0.00640869	
-0.00640869	
-0.00656128	
-0.00640869	
-0.0062561	
-0.00671387	
-0.0062561	
-0.00656128	
-0.00656128	
-0.00640869	
-0.00656128	
-0.00595093	
-0.00473022	
-0.0038147	
-0.00396729	
-0.00350952	
-0.00366211	
-0.00366211	
-0.00396729	
-0.0038147	
-0.00427246	
-0.00350952	
-0.00442505	
-0.00396729	
-0.00427246	
-0.00488281	
-0.00579834	
-0.00640869	
-0.00656128	
-0.0062561	
-0.00610352	
-0.0062561	
-0.00656128	
-0.00656128	
-0.00640869	
-0.00671387	
-0.00671387	
-0.00640869	
-0.0062561	
-0.00640869	
-0.0062561	
-0.0062561	
-0.00671387	
-0.00640869	
-0.0062561	
-0.0062561	
-0.0062561	
-0.00640869	
-0.00640869	
-0.00595093	
-0.00640869	
-0.00656128	
-0.00656128	
-0.00595093	
-0.00442505	
-0.00335693	
-0.00396729	
-0.0038147	
-0.00366211	
-0.00198364	
-0.00152588	
-0.00106812	
0.000305176	
0.000762939	
0.000915527	
0.00152588	
0.00259399	
0.00305176	
0.00320435	
0.00366211	
0.00350952	
0.00366211	
0.00320435	
0.00305176	
0.00305176	
0.00350952	
0.00335693	
0.00335693	
0.00335693	
0.00335693	
0.00350952	
0.00305176	
0.00335693	
0.00350952	
0.00350952	
0.00289917	
0.00106812	
0.00106812	
0.000762939	
0.000915527	
0.00167847	
0.00274658	
0.00335693	
0.00350952	
0.00366211	
0.00320435	
0.00289917	
0.00320435	
0.00335693	
0.00289917	
0.00366211	
0.0050354	
0.00610352	
0.00564575	
0.00579834	
0.00564575	
0.00656128	
0.00747681	
0.00793457	
0.00823975	
0.00839233	
0.00823975	
0.00808716	
0.00808716	
0.00823975	
0.00854492	
0.00839233	
0.00778198	
0.00823975	
0.00823975	
0.00808716	
0.00839233	
0.00823975	
0.00823975	
0.00808716	
0.00823975	
0.00793457	
0.00839233	
0.00823975	
0.00839233	
0.00839233	
0.00808716	
0.00823975	
0.00823975	
0.00823975	
0.00793457	
0.00808716	
0.00793457	
0.00823975	
0.00839233	
0.00823975	
0.00869751	
0.0102234	
0.0109863	
0.0126648	
0.0132751	
0.0138855	
0.0149536	
0.0157166	
0.0178528	
0.0177002	
0.0180054	
0.0183105	
0.0184631	
0.0201416	
0.0202942	
0.020752	
0.0201416	
0.0184631	
0.018158	
0.0180054	
0.017395	
0.0160217	
0.015564	
0.0149536	
0.0134277	
0.0128174	
0.0131226	
0.01297	
0.0128174	
0.0115967	
0.0105286	
0.0105286	
0.0106812	
0.0105286	
0.0106812	
0.0102234	
0.00900269	
0.00823975	
0.00823975	
0.00808716	
0.00762939	
0.00656128	
0.00549316	
0.00564575	
0.00579834	
0.00579834	
0.00564575	
0.00549316	
0.00549316	
0.00564575	
0.00595093	
0.00579834	
0.00579834	
0.00610352	
0.00579834	
0.00610352	
0.00579834	
0.00579834	
0.00595093	
0.00549316	
0.00549316	
0.00534058	
0.00564575	
0.00564575	
0.0062561	
0.00747681	
0.00808716	
0.00808716	
0.00808716	
0.0088501	
0.010376	
0.0106812	
0.0112915	
0.0125122	
0.0128174	
0.01297	
0.0134277	
0.0152588	
0.0157166	
0.0154114	
0.015564	
0.0154114	
0.0158691	
0.0157166	
0.0157166	
0.0157166	
0.0157166	
0.015564	
0.0154114	
0.015564	
0.0152588	
0.015564	
0.0151062	
0.0157166	
0.0154114	
0.0157166	
0.015564	
0.0166321	
0.0175476	
0.0180054	
0.0178528	
0.0184631	
0.0196838	
0.0201416	
0.0204468	
0.0204468	
0.0204468	
0.019989	
0.0186157	
0.018158	
0.0180054	
0.017395	
0.0163269	
0.0157166	
0.0151062	
0.0134277	
0.0131226	
0.01297	
0.01297	
0.0131226	
0.0128174	
0.0126648	
0.0109863	
0.010376	
0.0108337	
0.0105286	
0.0105286	
0.0114441	
0.0123596	
0.0131226	
0.0131226	
0.0131226	
0.0132751	
0.01297	
0.01297	
0.01297	
0.0128174	
0.01297	
0.0128174	
0.0115967	
0.0108337	
0.0105286	
0.0109863	
0.010376	
0.010376	
0.0106812	
0.0106812	
0.0109863	
0.0109863	
0.0125122	
0.0132751	
0.0128174	
0.01297	
0.0131226	
0.0131226	
0.0135803	
0.0151062	
0.0152588	
0.0160217	
0.0175476	
0.0178528	
0.0183105	
0.0196838	
0.0201416	
0.0205994	
0.020752	
0.0221252	
0.0227356	
0.022583	
0.0231934	
0.0228882	
0.0224304	
0.0210571	
0.0202942	
0.0201416	
0.0198364	
0.018158	
0.018158	
0.0178528	
0.0180054	
0.018158	
0.0172424	
0.0161743	
0.015564	
0.015564	
0.0160217	
0.015564	
0.015564	
0.0151062	
0.0152588	
0.015564	
0.015564	
0.0158691	
0.017395	
0.0177002	
0.0184631	
0.0198364	
0.0209045	
0.022583	
0.0234985	
0.0253296	
0.027771	
0.030365	
0.0325012	
0.0334167	
0.0350952	
0.0375366	
0.039978	
0.0416565	
0.042572	
0.0440979	
0.0442505	
0.045166	
0.0465393	
0.0465393	
0.0465393	
0.0448608	
0.0439453	
0.0430298	
0.0416565	
0.0401306	
0.0376892	
0.0350952	
0.0323486	
0.030365	
0.0280762	
0.0257874	
0.0230408	
0.0205994	
0.0180054	
0.0157166	
0.01297	
0.0114441	
0.0102234	
0.00854492	
0.00869751	
0.00732422	
0.00640869	
0.00595093	
0.00579834	
0.00564575	
0.00564575	
0.00564575	
0.00579834	
0.00564575	
0.00579834	
0.00671387	
0.00778198	
0.00808716	
0.00869751	
0.00976563	
0.0108337	
0.0125122	
0.0140381	
0.0157166	
0.0180054	
0.0198364	
0.0212097	
0.0231934	
0.0254822	
0.0273132	
0.0283813	
0.0299072	
0.0308228	
0.0326538	
0.0349426	
0.0357056	
0.0375366	
0.0375366	
0.0382996	
0.0398254	
0.039978	
0.0402832	
0.039978	
0.0398254	
0.039978	
0.0402832	
0.0401306	
0.0401306	
0.0413513	
0.0416565	
0.0424194	
0.0422668	
0.0424194	
0.0436401	
0.0447083	
0.0450134	
0.0465393	
0.0474548	
0.0492859	
0.0512695	
0.0523376	
0.0544739	
0.0561523	
0.057373	
0.0593567	
0.0608826	
0.0624084	
0.0634766	
0.0639343	
0.0645447	
0.0662231	
0.0665283	
0.0660706	
0.0646973	
0.0639343	
0.0634766	
0.0616455	
0.0593567	
0.0575256	
0.0563049	
0.0547791	
0.0514221	
0.0474548	
0.0444031	
0.0421143	
0.039978	
0.0375366	
0.035553	
0.0328064	
0.030365	
0.0280762	
0.025177	
0.0230408	
0.0210571	
0.0198364	
0.018158	
0.0160217	
0.0152588	
0.0137329	
0.0126648	
0.0111389	
0.0106812	
0.00991821	
0.0088501	
0.00839233	
0.00808716	
0.00823975	
0.00808716	
0.00823975	
0.00839233	
0.00747681	
0.00610352	
0.00579834	
0.00549316	
0.00579834	
0.00564575	
0.00518799	
0.0038147	
0.00305176	
0.00320435	
0.00350952	
0.00320435	
0.00350952	
0.00335693	
0.00335693	
0.00320435	
0.00320435	
0.00335693	
0.00305176	
0.00335693	
0.00335693	
0.00289917	
0.00335693	
0.00320435	
0.00320435	
0.00305176	
0.00274658	
0.00183105	
0.000762939	
0.000152588	
-0.000915527	
-0.00106812	
-0.00152588	
-0.00183105	
-0.00152588	
-0.0038147	
-0.00396729	
-0.0038147	
-0.0038147	
-0.0038147	
-0.00411987	
-0.0038147	
-0.00366211	
-0.0038147	
-0.00396729	
-0.00411987	
-0.00427246	
-0.00457764	
-0.00411987	
-0.00335693	
-0.00198364	
-0.00152588	
-0.0012207	
-0.0012207	
-0.00167847	
-0.0012207	
-0.00152588	
-0.00198364	
-0.0012207	
0.000457764	
0.000610352	
0.000762939	
0.00106812	
0.000610352	
0.000762939	
0.00106812	
0.000915527	
0.000762939	
0.00137329	
0.00259399	
0.00335693	
0.00335693	
0.00411987	
0.00549316	
0.00579834	
0.00564575	
0.00564575	
0.00610352	
0.00793457	
0.00823975	
0.00808716	
0.00839233	
0.00823975	
0.00854492	
0.0100708	
0.0106812	
0.0105286	
0.0105286	
0.0106812	
0.0105286	
0.010376	
0.0106812	
0.0108337	
0.0111389	
0.0126648	
0.0128174	
0.0134277	
0.0134277	
0.0128174	
0.0132751	
0.0131226	
0.0128174	
0.01297	
0.0132751	
0.01297	
0.0126648	
0.0111389	
0.0105286	
0.0100708	
0.00869751	
0.00747681	
0.00640869	
0.00549316	
0.00579834	
0.00579834	
0.00610352	
0.00762939	
0.0088501	
0.0106812	
0.012207	
0.0135803	
0.0154114	
0.0178528	
0.0204468	
0.0230408	
0.0253296	
0.0271606	
0.0283813	
0.030365	
0.0328064	
0.0344849	
0.0350952	
0.0360107	
0.0376892	
0.0393677	
0.0404358	
0.0422668	
0.045166	
0.0485229	
0.0523376	
0.0569153	
0.0622559	
0.0689697	
0.0765991	
0.085907	
0.0965881	
0.108032	
0.121002	
0.138092	
0.157166	
0.177307	
0.201569	
0.227814	
0.255737	
0.28717	
0.321655	
0.358429	
0.399017	
0.440979	
0.483246	
0.529022	
0.575714	
0.625305	
0.675659	
0.727081	
0.778503	
0.830383	
0.883026	
0.935364	
0.987396	
1.03958	
1.09024	
1.14029	
1.1879	
1.23474	
1.27991	
1.32217	
1.36032	
1.39542	
1.42685	
1.45386	
1.47568	
1.49277	
1.50513	
1.51367	
1.51749	
1.51733	
1.51367	
1.50574	
1.49353	
1.47949	
1.46149	
1.43997	
1.41556	
1.3884	
1.35666	
1.32065	
1.28174	
1.23917	
1.19339	
1.14395	
1.091	
1.03668	
0.980377	
0.921936	
0.862885	
0.802307	
0.740662	
0.677338	
0.613708	
0.549927	
0.486298	
0.422668	
0.361328	
0.300293	
0.239563	
0.180817	
0.123749	
0.068512	
0.0170898	
-0.0325012	
-0.0801086	
-0.12558	
-0.166626	
-0.204315	
-0.239868	
-0.272675	
-0.303497	
-0.331268	
-0.357819	
-0.380707	
-0.402069	
-0.419617	
-0.437012	
-0.451202	
-0.463867	
-0.474091	
-0.482788	
-0.488586	
-0.493927	
-0.497742	
-0.500488	
-0.501251	
-0.500793	
-0.49881	
-0.496521	
-0.493469	
-0.488739	
-0.483398	
-0.477142	
-0.471497	
-0.465088	
-0.459595	
-0.452271	
-0.444946	
-0.435791	
-0.428009	
-0.42038	
-0.413208	
-0.405731	
-0.397949	
-0.39093	
-0.383606	
-0.376434	
-0.368958	
-0.362091	
-0.35614	
-0.350037	
-0.343475	
-0.337677	
-0.332336	
-0.326691	
-0.320282	
-0.315247	
-0.310516	
-0.305176	
-0.300598	
-0.295868	
-0.29068	
-0.28595	
-0.282898	
-0.278168	
-0.274048	
-0.270538	
-0.266418	
-0.261841	
-0.259247	
-0.255737	
-0.251923	
-0.249023	
-0.246429	
-0.243835	
-0.240631	
-0.237122	
-0.23407	
-0.231781	
-0.22934	
-0.227356	
-0.224457	
-0.222778	
-0.221558	
-0.219421	
-0.21759	
-0.216827	
-0.214996	
-0.214081	
-0.212708	
-0.212097	
-0.211487	
-0.210419	
-0.209503	
-0.209503	
-0.209503	
-0.209961	
-0.209656	
-0.209656	
-0.209503	
-0.209808	
-0.209198	
-0.20813	
-0.207214	
-0.207367	
-0.206299	
-0.205078	
-0.204163	
-0.202942	
-0.201874	
-0.199585	
-0.198059	
-0.196838	
-0.195007	
-0.192566	
-0.19043	
-0.189819	
-0.187683	
-0.185242	
-0.183563	
-0.18219	
-0.180511	
-0.177612	
-0.175934	
-0.175018	
-0.172882	
-0.170288	
-0.168152	
-0.167542	
-0.165558	
-0.164642	
-0.163269	
-0.162659	
-0.161591	
-0.160522	
-0.159912	
-0.158691	
-0.158081	
-0.158386	
-0.158234	
-0.158234	
-0.157623	
-0.15625	
-0.15564	
-0.156097	
-0.155945	
-0.15564	
-0.15564	
-0.155792	
-0.155792	
-0.155487	
-0.153809	
-0.153503	
-0.153351	
-0.152893	
-0.151215	
-0.150909	
-0.150299	
-0.148773	
-0.148621	
-0.147705	
-0.146484	
-0.145569	
-0.144196	
-0.143433	
-0.141754	
-0.140839	
-0.139465	
-0.138092	
-0.136719	
-0.136261	
-0.135345	
-0.134277	
-0.133972	
-0.133362	
-0.131836	
-0.131531	
-0.131531	
-0.131226	
-0.131531	
-0.13092	
-0.129547	
-0.128784	
-0.128632	
-0.128632	
-0.126953	
-0.126648	
-0.125885	
-0.124512	
-0.123291	
-0.121765	
-0.121155	
-0.119629	
-0.118561	
-0.117035	
-0.115967	
-0.114746	
-0.113831	
-0.112305	
-0.111847	
-0.111542	
-0.111847	
-0.110931	
-0.109406	
